EMG,EMG integral
0.0616455,0
0.0610352,0.000616455
0.0799561,0.00122681
0.0585938,0.00202637
0.0549316,0.0026123
0.03479,0.00316162
0.0488281,0.00350952
0.0244141,0.0039978
0.057373,0.00424194
0.0592041,0.00481567
0.0592041,0.00540771
0.0396729,0.00599976
0.0695801,0.00639648
0.0653076,0.00709229
0.0622559,0.00774536
0.0445557,0.00836792
0.0402832,0.00881348
0.0488281,0.00921631
0.0396729,0.00970459
0.0494385,0.0101013
0.0354004,0.0105957
0.0439453,0.0109497
0.0463867,0.0113892
0.0543213,0.011853
0.0500488,0.0123962
0.0592041,0.0128967
0.0506592,0.0134888
0.0579834,0.0139954
0.0427246,0.0145752
0.0299072,0.0150024
0.0616455,0.0153015
0.0512695,0.015918
0.0457764,0.0164307
0.0390625,0.0168884
0.0439453,0.0172791
0.067749,0.0177185
0.0634766,0.018396
0.0585938,0.0190308
0.0653076,0.0196167
0.0439453,0.0202698
0.0561523,0.0207092
0.0494385,0.0212708
0.0488281,0.0217651
0.0524902,0.0222534
0.0299072,0.0227783
0.0701904,0.0230774
0.0518799,0.0237793
0.057373,0.0242981
0.0616455,0.0248718
0.0341797,0.0254883
0.0787354,0.0258301
0.0585938,0.0266174
0.0610352,0.0272034
0.0512695,0.0278137
0.0463867,0.0283264
0.0793457,0.0287903
0.0585938,0.0295837
0.0415039,0.0301697
0.0732422,0.0305847
0.0506592,0.0313171
0.00915527,0.0318237
0.0482178,0.0319153
0.0341797,0.0323975
0.0427246,0.0327393
0.0311279,0.0331665
0.0592041,0.0334778
-0.00244141,0.0340698
0.0134277,0.0340942
0.0604248,0.0342285
0.045166,0.0348328
0.0177002,0.0352844
0.0274658,0.0354614
0.0170898,0.0357361
0.0445557,0.035907
0.0341797,0.0363525
0.0445557,0.0366943
0.0518799,0.0371399
0.0396729,0.0376587
0.0274658,0.0380554
0.0469971,0.0383301
0.0469971,0.0388
0.0274658,0.03927
0.0457764,0.0395447
0.0494385,0.0400024
-0.00366211,0.0404968
0.0244141,0.0405334
0.0195313,0.0407776
0.0274658,0.0409729
0.00366211,0.0412476
0.00732422,0.0412842
0.00793457,0.0413574
0.0244141,0.0414368
0.0189209,0.0416809
0.0201416,0.0418701
0.0622559,0.0420715
0.0610352,0.0426941
0.0671387,0.0433044
0.0402832,0.0439758
-0.0311279,0.0443787
0.0354004,0.0446899
0.00183105,0.0444458
0.00915527,0.043927
0.000610352,0.0431335
-0.0402832,0.0429504
-0.0354004,0.0427551
-0.00366211,0.0424438
0.0262451,0.042218
0.0213623,0.0421875
-0.057373,0.0421875
0.00793457,0.0416748
0.0012207,0.041095
-0.0158691,0.0408569
-0.00976563,0.0402588
-0.0109863,0.0397156
-0.0231934,0.039325
0.00183105,0.0388977
0.00366211,0.0385315
-0.00976563,0.0381409
0.000610352,0.0377502
-0.00488281,0.0373047
0,0.0369507
-0.00854492,0.0365967
-0.0280762,0.0364136
0.0292969,0.0361633
0.0311279,0.0359741
0.000610352,0.0353882
0.0183105,0.0350647
0.00488281,0.0345337
-0.00671387,0.0341736
0,0.0338745
-0.00732422,0.0333313
-0.0323486,0.0331421
-0.0311279,0.0329956
-0.0189209,0.0327942
-0.0231934,0.0325867
-0.00793457,0.0319885
-0.0610352,0.0319641
0.0292969,0.0316711
-0.00366211,0.0310547
0.00427246,0.030658
-0.0476074,0.0305725
0.00244141,0.0301025
-0.0189209,0.0298035
0.00732422,0.0293518
0.00488281,0.0291016
-0.012207,0.0285217
-0.00488281,0.0280518
-0.00610352,0.0275391
-0.00854492,0.0270081
-0.0189209,0.0268555
-0.0158691,0.0262268
-0.0341797,0.0259827
-0.0201416,0.0255737
-0.0268555,0.0253296
-0.0482178,0.0253479
-0.0305176,0.0248596
-0.0366211,0.0246399
-0.0415039,0.0246399
-0.0378418,0.0242859
-0.0238037,0.0240173
-0.0579834,0.0245056
-0.0286865,0.0243103
-0.0109863,0.0240784
-0.0280762,0.0239319
-0.0427246,0.0240479
-0.0134277,0.0235901
-0.0341797,0.0239075
-0.00976563,0.0238708
-0.0531006,0.0237976
-0.065918,0.0240051
-0.057373,0.0244019
-0.0292969,0.0244202
-0.057373,0.024823
-0.0506592,0.024884
-0.020752,0.0247498
-0.0585938,0.0248901
-0.00854492,0.0244568
-0.0244141,0.0243042
-0.0189209,0.0242188
-0.0286865,0.0240356
-0.00366211,0.0236023
-0.00183105,0.0233459
-0.0335693,0.0232239
0.0146484,0.022876
0.0195313,0.0230347
0.0128174,0.0229187
-0.00305176,0.0227539
-0.0250244,0.0227295
-0.00915527,0.0227844
0.00366211,0.0227478
-0.0256348,0.0229248
-0.0482178,0.0231628
-0.0537109,0.0235107
-0.0750732,0.0240601
-0.0390625,0.0238281
-0.0457764,0.0236755
-0.0488281,0.0234924
-0.0292969,0.0233826
-0.0360107,0.0234314
-0.0421143,0.0234985
-0.0354004,0.0238342
-0.0238037,0.0239807
-0.0213623,0.0241882
0.00244141,0.0238098
0.057373,0.0240295
0.0244141,0.0242371
0,0.0239746
-0.00244141,0.0237854
0.00915527,0.0233032
-0.0390625,0.0236145
-0.0115967,0.0237183
-0.111084,0.0246704
-0.0610352,0.0251831
-0.0891113,0.0259644
-0.125122,0.0269836
-0.112305,0.0280884
-0.0463867,0.0285156
-0.00183105,0.0284363
-0.0134277,0.0285645
-0.0799561,0.0293152
-0.045166,0.0297668
0.0146484,0.0298279
0.00244141,0.0295715
-0.0445557,0.0297241
-0.0360107,0.0297729
-0.0402832,0.0301697
-0.0463867,0.0304504
-0.0469971,0.0308716
-0.0585938,0.0313904
-0.00976563,0.031488
-0.0756836,0.0321716
-0.0531006,0.0323792
-0.0488281,0.0325562
-0.0158691,0.0325256
-0.00488281,0.0323425
-0.0164795,0.032428
-0.0335693,0.0321533
-0.03479,0.0322083
-0.0482178,0.0326538
-0.012207,0.0327332
-0.0268555,0.0325256
-0.0457764,0.032959
-0.0561523,0.0333313
-0.0408936,0.033667
-0.0531006,0.0341492
-0.0152588,0.0341797
0.0012207,0.0341431
-0.0109863,0.0341919
-0.00305176,0.034137
0.00305176,0.0339783
-0.0408936,0.0342285
-0.0567627,0.0344543
0.0244141,0.0344971
-0.0177002,0.0344055
-0.0537109,0.0344604
-0.0469971,0.0346252
0.0177002,0.034436
-0.0109863,0.0341309
0.00610352,0.0338135
-0.0292969,0.0338684
-0.0653076,0.0339417
-0.0109863,0.0337646
0.0109863,0.0337646
-0.0585938,0.0340698
-0.0854492,0.0344971
-0.0311279,0.0346741
-0.0134277,0.0344666
-0.0299072,0.034668
0.0640869,0.0347778
0.0305176,0.0344238
0.00427246,0.0338928
0.0341797,0.0339417
-0.022583,0.0335937
-0.00854492,0.0331726
-0.00732422,0.0330383
-0.055542,0.0330078
-0.0750732,0.0336731
-0.0512695,0.0339417
-0.0592041,0.0343445
-0.0689697,0.0347473
-0.0213623,0.0349243
-0.045166,0.0353577
-0.0378418,0.0354004
-0.0109863,0.0353638
-0.0445557,0.035614
-0.0360107,0.0358459
-0.00915527,0.035907
-0.022583,0.0358826
-0.0360107,0.0361511
-0.00183105,0.0361328
-0.00915527,0.035968
-0.0195313,0.0356812
-0.0274658,0.0354187
-0.0512695,0.0351807
-0.0311279,0.0351013
-0.000610352,0.0346497
-0.0616455,0.0347778
-0.0231934,0.0347168
0.0158691,0.0345154
-0.0299072,0.0343933
-0.0335693,0.034375
0.0189209,0.0343262
0.0219727,0.0343323
-0.0402832,0.0347107
-0.0299072,0.034436
-0.0152588,0.0343445
-0.0158691,0.0345032
-0.0793457,0.0352722
-0.0262451,0.0354431
-0.0244141,0.0352966
-0.0488281,0.0356689
-0.0189209,0.0347473
-0.0280762,0.0344177
-0.0335693,0.0338623
-0.0213623,0.0328247
-0.0195313,0.031897
-0.0183105,0.0316162
-0.0012207,0.0316101
-0.032959,0.0318054
-0.0622559,0.0316284
-0.0421143,0.0315979
-0.0262451,0.0317139
-0.0311279,0.0320007
-0.032959,0.0318848
-0.0170898,0.0316956
-0.0256348,0.0315491
-0.0909424,0.0319946
-0.00610352,0.0315857
0.0250244,0.03125
-0.045166,0.031604
-0.03479,0.0311951
-0.0396729,0.0310608
-0.0219727,0.0307922
-0.020752,0.0308411
-0.0396729,0.031189
-0.00854492,0.0311096
-0.0140381,0.0309143
-0.0158691,0.0307251
-0.0195313,0.0304382
-0.0262451,0.0305786
-0.03479,0.030658
-0.0579834,0.03078
-0.0262451,0.030481
-0.0146484,0.0302185
-0.0372314,0.0300598
-0.0805664,0.0307129
-0.045166,0.0311523
0.00793457,0.0311218
-0.0292969,0.0313843
-0.0561523,0.0319153
-0.0482178,0.0319885
-0.00610352,0.0314819
0,0.0312378
-0.0445557,0.0315063
-0.0335693,0.0313049
-0.00305176,0.0308655
-0.067749,0.031366
-0.0262451,0.0315186
-0.0415039,0.0318726
-0.0579834,0.0321594
-0.0567627,0.032074
-0.0439453,0.0324036
-0.0793457,0.0330872
-0.0354004,0.0328552
-0.0390625,0.0323914
-0.0292969,0.032373
-0.0292969,0.0325317
-0.0115967,0.0323486
-0.012207,0.0318298
-0.0463867,0.0319885
-0.0561523,0.0325073
-0.0292969,0.0324585
-0.0268555,0.0325012
-0.0640869,0.0330566
-0.0720215,0.0337036
-0.0390625,0.0335388
-0.0744629,0.0335327
-0.0622559,0.0336426
-0.0354004,0.0334045
-0.0396729,0.0331116
-0.0396729,0.0332947
-0.0488281,0.0333313
-0.0537109,0.03349
-0.0415039,0.0337952
-0.0549316,0.0338989
-0.0274658,0.0338135
-0.0518799,0.0342407
-0.0494385,0.0345093
-0.022583,0.034375
-0.0366211,0.0347229
-0.0610352,0.0352417
-0.0982666,0.0360291
-0.0604248,0.0363586
-0.043335,0.0362793
-0.0616455,0.0365845
-0.0970459,0.0375488
-0.123291,0.0381653
-0.0744629,0.038678
-0.0585938,0.0391052
-0.0335693,0.0391418
-0.0543213,0.0393494
-0.0958252,0.0401184
-0.0518799,0.0404175
-0.012207,0.0401367
-0.0219727,0.0400574
-0.00244141,0.0399292
0.03479,0.0401184
0.0195313,0.0395203
0.0183105,0.0394409
-0.0268555,0.0394653
-0.0463867,0.0394409
-0.0311279,0.039563
-0.0799561,0.0400818
-0.118408,0.0409302
-0.13916,0.0421082
-0.116577,0.0430786
-0.111694,0.0440125
-0.0909424,0.0449097
-0.0946045,0.0455261
-0.055542,0.045459
-0.0793457,0.0458313
-0.0482178,0.046051
-0.0567627,0.0463074
-0.0836182,0.046814
-0.10498,0.0476929
-0.0506592,0.0479431
-0.0860596,0.0478943
-0.0622559,0.0484558
-0.105591,0.0492615
-0.0860596,0.0496704
-0.0274658,0.0495972
-0.057373,0.0497742
-0.0402832,0.0499573
-0.0500488,0.0502502
-0.0457764,0.0503113
-0.0427246,0.0506531
-0.0439453,0.0509521
-0.0354004,0.0511475
-0.0628662,0.0515808
-0.0714111,0.0520325
-0.0610352,0.0522949
-0.010376,0.0518188
-0.0195313,0.0517517
-0.0244141,0.0518494
-0.0701904,0.052179
-0.0683594,0.0520569
-0.0561523,0.0521667
-0.0311279,0.0523987
-0.0695801,0.0528015
-0.122681,0.0534668
-0.106201,0.0540466
-0.0537109,0.0545227
-0.0567627,0.0550903
-0.0518799,0.0551636
-0.0244141,0.055072
-0.0531006,0.0555725
-0.0317383,0.0552124
-0.0268555,0.0552185
-0.0646973,0.0554504
-0.0372314,0.0552429
-0.067749,0.0553528
-0.03479,0.0552612
-0.045166,0.0549194
-0.0360107,0.0549255
-0.0634766,0.0551697
-0.0671387,0.0555481
-0.0463867,0.055719
-0.0646973,0.05625
-0.0543213,0.0566711
-0.0598145,0.0568054
-0.0921631,0.0571655
-0.0897217,0.0577698
-0.0592041,0.0580933
-0.0671387,0.0581238
-0.0982666,0.0583862
-0.0805664,0.0588013
-0.0939941,0.0589966
-0.0793457,0.0591675
-0.0762939,0.0595764
-0.0756836,0.0599365
-0.088501,0.0604248
-0.0708008,0.0606445
-0.0622559,0.06073
-0.078125,0.0610962
-0.0585938,0.0611328
-0.0628662,0.0614868
-0.0622559,0.0615906
-0.0408936,0.0615051
-0.0195313,0.0614746
-0.0195313,0.0613037
-0.0372314,0.0610657
-0.0335693,0.0604187
-0.130615,0.0611206
-0.0909424,0.0615967
-0.057373,0.061554
-0.106201,0.0616455
-0.113525,0.0615479
-0.125122,0.0620544
-0.112305,0.0625916
-0.0714111,0.06297
-0.101318,0.0634399
-0.101929,0.063501
-0.0421143,0.0634033
-0.0836182,0.0641174
-0.105591,0.0649536
-0.0939941,0.0658691
-0.065918,0.0661804
-0.0341797,0.0663269
-0.101929,0.0671631
-0.0701904,0.0675964
-0.0476074,0.0676086
-0.0738525,0.0680359
-0.0909424,0.0681458
-0.0817871,0.0677795
-0.106812,0.0674561
-0.105591,0.0673462
-0.0640869,0.0668701
-0.0726318,0.066687
-0.0762939,0.0665039
-0.0738525,0.066687
-0.0622559,0.0665161
-0.10376,0.0670715
-0.0646973,0.0671509
-0.0720215,0.0670349
-0.0982666,0.0669678
-0.102539,0.0674866
-0.0891113,0.0675171
-0.0952148,0.0678467
-0.0769043,0.0675598
-0.0579834,0.0672791
-0.0946045,0.0679504
-0.0836182,0.0682129
-0.0842285,0.0686523
-0.0683594,0.0688354
-0.0701904,0.0690796
-0.0994873,0.0696472
-0.0616455,0.0698242
-0.10498,0.07052
-0.128784,0.0711792
-0.0158691,0.0706238
-0.0708008,0.0707214
-0.0964355,0.071582
-0.0958252,0.072345
-0.0769043,0.0728699
-0.0531006,0.072699
-0.0360107,0.0723755
-0.0708008,0.072522
-0.0653076,0.0728638
-0.137329,0.0735413
-0.0848389,0.0731628
-0.0610352,0.0727112
-0.105591,0.07323
-0.0830078,0.0734924
-0.130005,0.0742737
-0.0994873,0.0750244
-0.109253,0.0755859
-0.0964355,0.0762329
-0.0775146,0.0767395
-0.0830078,0.0769226
-0.0665283,0.0772156
-0.0592041,0.0771301
-0.125122,0.0780334
-0.0756836,0.0783386
-0.0665283,0.0786438
-0.0817871,0.0788269
-0.0909424,0.0790649
-0.110474,0.0797058
-0.0897217,0.0799561
-0.098877,0.0804016
-0.0891113,0.0806946
-0.0927734,0.0807007
-0.0616455,0.0804199
-0.0598145,0.080426
-0.0622559,0.0803772
-0.0866699,0.0802612
-0.111084,0.0805664
-0.10498,0.0806763
-0.0878906,0.0807617
-0.103149,0.0810303
-0.109863,0.0813721
-0.128784,0.0817749
-0.098877,0.0820557
-0.0921631,0.0823547
-0.0726318,0.0822998
-0.0683594,0.0823975
-0.0793457,0.0825623
-0.0750732,0.0826904
-0.0860596,0.0831421
-0.0939941,0.0838867
-0.0762939,0.0844543
-0.0665283,0.0847473
-0.12146,0.0856262
-0.120239,0.0855225
-0.10498,0.0856628
-0.142822,0.0865173
-0.107422,0.0865295
-0.0982666,0.086377
-0.141602,0.0865417
-0.136108,0.0867798
-0.10437,0.0871094
-0.10498,0.087146
-0.114136,0.0872681
-0.106201,0.0879089
-0.109253,0.0881653
-0.108032,0.0881897
-0.114136,0.0883911
-0.12085,0.0889404
-0.115967,0.0897583
-0.128784,0.0900269
-0.0952148,0.0902771
-0.0714111,0.0905151
-0.0982666,0.0907593
-0.116577,0.0910156
-0.130615,0.0915039
-0.0732422,0.0911682
-0.105591,0.0911682
-0.107422,0.0916016
-0.134888,0.0922241
-0.137939,0.0928406
-0.130615,0.0934082
-0.10376,0.0938232
-0.147705,0.0942627
-0.135498,0.0949707
-0.125122,0.0955017
-0.161743,0.0961365
-0.13916,0.0965027
-0.123291,0.0968445
-0.145874,0.0973511
-0.136108,0.0979431
-0.125122,0.0986145
-0.143433,0.0991028
-0.123291,0.0994995
-0.101929,0.0996765
-0.112305,0.100116
-0.106812,0.100482
-0.123901,0.100726
-0.116577,0.101276
-0.126953,0.101495
-0.140991,0.101617
-0.129395,0.102753
-0.0811768,0.102856
-0.120239,0.103094
-0.109863,0.103235
-0.143433,0.1039
-0.0952148,0.104321
-0.0946045,0.104907
-0.141602,0.105615
-0.131226,0.106274
-0.134277,0.106244
-0.144653,0.106842
-0.151978,0.107751
-0.143433,0.10813
-0.145264,0.108752
-0.12207,0.108673
-0.123291,0.108911
-0.12085,0.109027
-0.119019,0.109253
-0.117188,0.10965
-0.112915,0.109949
-0.122681,0.11051
-0.107422,0.110992
-0.0860596,0.110602
-0.105591,0.110901
-0.0958252,0.111194
-0.114746,0.111523
-0.108643,0.1117
-0.132446,0.11192
-0.125122,0.112274
-0.12207,0.112506
-0.114136,0.112756
-0.154419,0.113373
-0.151978,0.114276
-0.131226,0.11499
-0.0976563,0.115344
-0.12146,0.115692
-0.110474,0.115686
-0.112305,0.115759
-0.119019,0.116071
-0.0970459,0.11601
-0.12085,0.116119
-0.123901,0.116071
-0.140991,0.116492
-0.0994873,0.116565
-0.146484,0.117303
-0.140991,0.11803
-0.126953,0.118506
-0.125732,0.119012
-0.109863,0.11925
-0.132446,0.119635
-0.0970459,0.119843
-0.117798,0.120355
-0.133667,0.120477
-0.101929,0.120294
-0.111084,0.120355
-0.133057,0.120258
-0.0976563,0.12016
-0.107422,0.120251
-0.106812,0.119904
-0.10498,0.119592
-0.108032,0.119629
-0.12146,0.119794
-0.144653,0.120099
-0.0976563,0.120013
-0.128784,0.120209
-0.15625,0.120691
-0.125732,0.120807
-0.117798,0.120776
-0.136108,0.120978
-0.150757,0.121198
-0.0915527,0.121161
-0.10498,0.121497
-0.132446,0.121838
-0.111694,0.12179
-0.106201,0.121545
-0.115967,0.121973
-0.106812,0.121985
-0.108032,0.121991
-0.100708,0.121649
-0.123291,0.121503
-0.109863,0.121295
-0.109863,0.121356
-0.115356,0.121033
-0.112305,0.120801
-0.109863,0.120648
-0.101929,0.12005
-0.108643,0.119745
-0.10437,0.119556
-0.0854492,0.118951
-0.0817871,0.118408
-0.0982666,0.11814
-0.115356,0.117859
-0.101929,0.117645
-0.078125,0.117407
-0.112305,0.117407
-0.120239,0.117542
-0.112305,0.117426
-0.117798,0.117438
-0.112915,0.117297
-0.129395,0.117181
-0.10376,0.116925
-0.113525,0.117249
-0.0860596,0.116907
-0.105591,0.116864
-0.115356,0.116583
-0.0671387,0.116302
-0.0909424,0.116266
-0.0634766,0.115485
-0.067749,0.11485
-0.0817871,0.114325
-0.0537109,0.113416
-0.0671387,0.112567
-0.0915527,0.112048
-0.0634766,0.11123
-0.117798,0.111188
-0.106812,0.111023
-0.0744629,0.110559
-0.0927734,0.110297
-0.12085,0.110333
-0.126953,0.110474
-0.171509,0.110962
-0.124512,0.111133
-0.132446,0.111597
-0.136108,0.111902
-0.145874,0.112402
-0.250244,0.113757
-0.200195,0.114673
-0.130615,0.114655
-0.150146,0.114905
-0.202026,0.115704
-0.214233,0.116705
-0.196533,0.117126
-0.17334,0.11734
-0.17334,0.117761
-0.159302,0.118378
-0.122681,0.11839
-0.107422,0.118359
-0.10498,0.118286
-0.109863,0.118195
-0.0543213,0.117767
-0.0195313,0.116754
-0.0634766,0.11615
-0.032959,0.11507
-0.0408936,0.114484
-0.196533,0.114984
-0.149536,0.11507
-0.0708008,0.114508
-0.172119,0.114972
-0.126953,0.115143
-0.267334,0.116492
-0.127563,0.116797
-0.0897217,0.116516
-0.045166,0.115631
-0.0799561,0.115411
-0.189209,0.116193
-0.129395,0.116156
-0.0939941,0.116119
-0.12146,0.11626
-0.151367,0.116705
-0.293579,0.118591
-0.183105,0.119342
-0.292358,0.121051
-0.19043,0.121509
-0.151978,0.122052
-0.170898,0.122473
-0.144043,0.122351
-0.0793457,0.121887
-0.13916,0.122101
-0.0244141,0.120984
0.0183105,0.119659
-0.0592041,0.119336
-0.00610352,0.118347
0.0909424,0.117932
0.00488281,0.116864
-0.0622559,0.116425
-0.162354,0.116888
-0.0872803,0.116693
-0.0372314,0.115985
-0.00671387,0.115045
-0.146484,0.115277
-0.356445,0.117743
-0.0616455,0.117261
-0.0952148,0.117059
-0.150146,0.117438
-0.126953,0.117609
-0.166016,0.11825
-0.192261,0.119086
-0.247803,0.12052
-0.256958,0.122235
-0.0671387,0.122089
-0.0500488,0.121606
-0.110474,0.121558
-0.220337,0.122742
-0.0787354,0.122748
0.189209,0.123517
0.0115967,0.12243
0.0354004,0.121661
-0.0268555,0.120752
0.144043,0.121063
-0.0372314,0.120142
-0.0799561,0.119904
-0.0622559,0.119391
-0.168457,0.120215
-0.162964,0.120789
-0.0653076,0.120288
-0.101318,0.12063
0.128174,0.121002
-0.0280762,0.120648
0.0439453,0.12041
-0.194702,0.121539
-0.0738525,0.121741
0.0793457,0.121863
-0.109863,0.122046
-0.177612,0.123187
-0.0909424,0.122919
-0.296631,0.124817
-0.155029,0.125623
-0.380859,0.128503
-0.112305,0.128418
-0.26062,0.129755
-0.0469971,0.12851
-0.333252,0.130597
-0.210571,0.131378
-0.365601,0.133673
-0.139771,0.133612
0.00854492,0.131195
-0.0262451,0.129456
-0.217285,0.130322
-0.202026,0.130841
-0.217896,0.131
0.101318,0.129871
0.0384521,0.12829
-0.0280762,0.126837
0.36438,0.128748
0.168457,0.128839
0.175171,0.129364
-0.0366211,0.128656
0.057373,0.12818
-0.222168,0.129303
-0.0476074,0.129236
-0.252075,0.131561
-0.217285,0.133099
-0.302734,0.135797
-0.119629,0.136584
0.125122,0.13587
-0.0152588,0.134528
-0.0500488,0.13432
0.0622559,0.133221
-0.155029,0.133502
-0.222168,0.133051
-0.22644,0.134039
-0.341797,0.13656
-0.292969,0.139038
-0.463257,0.142871
-0.0286865,0.141266
-0.120239,0.141174
-0.115967,0.141394
-0.129395,0.141473
-0.0183105,0.140143
-0.162354,0.138831
-0.088501,0.137885
0.154419,0.136505
-0.0421143,0.135022
-0.26062,0.136108
-0.136108,0.13576
-0.125732,0.135577
-0.166016,0.136444
-0.0860596,0.135913
-0.0299072,0.135968
0.010376,0.135889
-0.0213623,0.13551
-0.0714111,0.136163
0.143433,0.136688
-0.0598145,0.137238
0.012207,0.136737
-0.0671387,0.135785
-0.15625,0.136475
-0.0341797,0.136444
-0.101929,0.137396
-0.219116,0.138123
-0.266113,0.137219
-0.0653076,0.137256
-0.198975,0.138293
-0.142822,0.13822
-0.098877,0.137939
-0.186768,0.138147
-0.162964,0.137854
-0.111694,0.136493
-0.256958,0.136493
-0.203857,0.13786
-0.0701904,0.138062
-0.150757,0.138464
-0.222168,0.138483
-0.0592041,0.138287
-0.105591,0.137451
-0.0488281,0.137823
0.0701904,0.138171
0.0762939,0.138666
-0.0622559,0.137848
-0.125732,0.138733
0.00488281,0.137982
-0.0482178,0.137842
-0.160522,0.137762
-0.291138,0.139044
-0.172729,0.140118
-0.0976563,0.140082
-0.101318,0.139813
-0.148315,0.141016
-0.0921631,0.141498
-0.0592041,0.140143
0.0549316,0.139954
0.0128174,0.139288
0.125122,0.139441
-0.00793457,0.137744
0.0494385,0.137329
0.0201416,0.134564
-0.130615,0.13432
-0.043335,0.130945
0.00671387,0.129889
-0.167236,0.128955
-0.126343,0.129749
-0.171509,0.128131
-0.346069,0.129486
-0.219116,0.128021
-0.125122,0.127875
-0.166626,0.129456
-0.0640869,0.129834
-0.0598145,0.128259
-0.192261,0.128162
-0.117188,0.127155
-0.0512695,0.126654
-0.0494385,0.126764
-0.0549316,0.127032
-0.144653,0.124835
-0.166626,0.124817
-0.135498,0.12442
-0.0866699,0.124921
-0.0738525,0.125085
-0.0463867,0.123328
-0.0158691,0.12301
-0.0231934,0.120721
-0.0683594,0.119232
-0.106201,0.117267
-0.0531006,0.116602
0.0317383,0.115668
-0.101929,0.116534
0.0177002,0.116211
-0.0384521,0.115973
-0.0506592,0.114929
-0.0695801,0.113403
-0.057373,0.111713
0.00915527,0.108386
-0.0720215,0.106177
-0.0976563,0.102521
-0.0964355,0.103198
-0.124512,0.103241
-0.0189209,0.102271
0.0183105,0.10116
0.00915527,0.101068
-0.136719,0.100812
-0.196533,0.101892
-0.149536,0.101843
-0.148315,0.102905
-0.145264,0.101752
-0.206909,0.10246
-0.24231,0.103625
-0.151978,0.103485
-0.159302,0.104218
-0.0787354,0.104706
-0.0671387,0.105273
-0.0689697,0.10575
-0.0958252,0.105994
-0.00854492,0.104645
-0.00610352,0.104108
-0.0268555,0.104254
-0.0939941,0.104523
-0.0408936,0.103369
-0.00305176,0.103058
-0.0817871,0.102856
0.0183105,0.100848
-0.0384521,0.0985718
-0.0512695,0.0984314
0.0976563,0.0974182
-0.0366211,0.0963562
-0.057373,0.0959412
-0.128174,0.0953552
-0.0585938,0.0943115
-0.0695801,0.0938904
-0.235596,0.0936768
-0.192261,0.0935608
-0.192261,0.0947815
-0.112915,0.0944031
-0.0299072,0.0924805
-0.0360107,0.0922485
0.057373,0.0917664
0.010376,0.0913818
-0.0250244,0.0909302
-0.0415039,0.0905823
-0.13855,0.0913452
-0.0939941,0.0910278
-0.127563,0.0922546
-0.223389,0.0940063
-0.223389,0.094635
-0.266113,0.0943848
-0.189209,0.0945496
-0.115356,0.0947266
-0.123901,0.0949524
-0.0750732,0.09422
-0.0811768,0.0941101
-0.0701904,0.09422
-0.0585938,0.0942566
-0.0561523,0.0946899
-0.147095,0.0949097
-0.0970459,0.0958008
-0.134888,0.0966553
-0.0390625,0.0968445
-0.0708008,0.0962463
-0.0848389,0.0966614
-0.0665283,0.0972595
-0.117798,0.0967651
-0.0921631,0.0964233
-0.0817871,0.0955261
-0.108643,0.0931519
-0.0860596,0.0918213
-0.145264,0.0920227
-0.119629,0.0915527
-0.0683594,0.0915955
-0.057373,0.091571
-0.0506592,0.090155
-0.0177002,0.0891602
-0.123901,0.0898865
-0.120239,0.0905945
-0.0866699,0.0909119
-0.180054,0.0912659
-0.159912,0.0911987
-0.161133,0.0914551
-0.111084,0.0916992
-0.20874,0.0930481
-0.0683594,0.0932678
-0.0646973,0.0937561
-0.0195313,0.0937195
0.0231934,0.0932678
-0.0964355,0.0931702
-0.0732422,0.0933716
-0.0262451,0.0933167
-0.0665283,0.0929626
-0.0878906,0.0936646
-0.0897217,0.0941772
-0.109863,0.0947693
-0.160522,0.0956787
-0.0494385,0.0955994
-0.194702,0.0974548
-0.0708008,0.0974426
-0.128784,0.0977539
-0.170288,0.0984924
-0.101318,0.0982605
-0.125732,0.0993286
-0.166626,0.100812
-0.057373,0.101294
-0.0164795,0.100092
-0.111694,0.0992432
-0.0512695,0.0982605
-0.0305176,0.0970825
-0.0427246,0.0960571
-0.0598145,0.0945862
0.0128174,0.0922913
0.134888,0.0921204
0.0634766,0.0911621
-0.126953,0.0916443
-0.0891113,0.091864
-0.10437,0.092218
-0.0921631,0.0921814
-0.150757,0.0936035
-0.162354,0.095166
-0.179443,0.0966919
-0.239868,0.0981506
-0.101318,0.0987549
-0.0640869,0.0993652
0.0476074,0.0990234
-0.0549316,0.0993896
0.0201416,0.0992065
-0.0579834,0.0992737
-0.17395,0.100037
-0.130005,0.10097
-0.133057,0.101727
-0.186768,0.102313
-0.209961,0.103827
-0.102539,0.104156
-0.175171,0.103552
0.0604248,0.102234
-0.0177002,0.100488
-0.152588,0.100885
0.0439453,0.101025
-0.202026,0.102686
-0.101929,0.103131
-0.0146484,0.103174
-0.151367,0.104437
-0.158691,0.105609
-0.220337,0.106427
-0.0854492,0.106342
0.0805664,0.105872
-0.0231934,0.10387
-0.0152588,0.101788
-0.0384521,0.0995117
0.20752,0.0996948
-0.0476074,0.0990173
-0.164795,0.0994263
-0.0732422,0.099408
-0.078125,0.0993774
-0.0927734,0.0996033
-0.0384521,0.0994019
-0.140991,0.10025
-0.0250244,0.0990295
-0.150757,0.0995667
-0.0311279,0.0985291
-0.0866699,0.0990051
-0.00183105,0.0983154
-0.143433,0.0989014
-0.105591,0.099292
-0.0665283,0.0987793
-0.0604248,0.0984619
-0.118408,0.0988281
-0.160522,0.0993469
-0.0689697,0.099176
-0.101929,0.0987427
-0.126343,0.0988098
-0.228882,0.100415
-0.065918,0.1005
-0.161743,0.101611
-0.0915527,0.10235
-0.111694,0.102228
-0.153198,0.102557
-0.0567627,0.102258
-0.0170898,0.100629
-0.123291,0.100262
-0.0994873,0.099646
-0.114136,0.0996765
-0.0897217,0.0984863
-0.0592041,0.0983948
-0.067749,0.0984253
0.0946045,0.099176
-0.0378418,0.0993225
-0.00244141,0.0983826
0.0750732,0.0984009
0.0524902,0.0986633
-0.145874,0.0994568
-0.067749,0.0992554
0.0146484,0.0985046
-0.0927734,0.0983337
-0.0921631,0.0976501
-0.0299072,0.0974548
0.00244141,0.0955322
-0.152588,0.0963501
0.0305176,0.0953674
0.110474,0.0947693
-0.0268555,0.0940247
-0.0469971,0.0932373
-0.134888,0.0929199
-0.171509,0.0940613
-0.137329,0.0952698
-0.129395,0.0954468
-0.090332,0.0958374
-0.247192,0.0980042
-0.171509,0.099292
-0.0866699,0.0995605
-0.133057,0.100763
-0.0958252,0.100372
-0.12207,0.100958
-0.0805664,0.100494
-0.0927734,0.100531
-0.20813,0.101569
-0.0708008,0.101355
-0.0738525,0.100586
-0.118408,0.100146
-0.135498,0.099707
-0.0408936,0.0977173
-0.0445557,0.0971497
-0.0744629,0.0972534
-0.0891113,0.0976685
0.0146484,0.0972656
-0.0280762,0.097345
-0.0439453,0.0972046
0.109253,0.0965576
0.115356,0.0964111
0.0378418,0.095459
0.167847,0.0952698
0.0994873,0.094165
0.0177002,0.0933167
-0.108032,0.0926453
-0.0646973,0.092688
-0.161743,0.0941284
-0.161743,0.09422
-0.117188,0.0949524
-0.0860596,0.0937927
-0.139771,0.0941711
-0.045166,0.0944763
-0.101318,0.0939758
-0.0872803,0.0932617
-0.0421143,0.0914795
-0.0482178,0.0911072
-0.189819,0.0921997
-0.233765,0.0943054
-0.183105,0.0959839
-0.170898,0.0973083
-0.0878906,0.0961121
-0.0915527,0.0965515
-0.109863,0.0960022
-0.0640869,0.0959106
-0.10376,0.096167
-0.0671387,0.0959106
-0.0830078,0.0963562
-0.112915,0.0960754
-0.0872803,0.096698
-0.0201416,0.0953918
-0.0604248,0.0956848
-0.124512,0.0960632
0.130005,0.097345
-0.0976563,0.0968872
-0.0762939,0.0965942
-0.0964355,0.0968933
0.0323486,0.0966125
0.00488281,0.0954773
-0.00549316,0.093927
-0.0482178,0.0937195
0.0378418,0.0930786
-0.0500488,0.0923157
0.0183105,0.09021
-0.0567627,0.0901184
-0.0439453,0.0889404
0.128784,0.0893127
-0.0537109,0.0887329
-0.100098,0.0882019
-0.133057,0.0889648
-0.0933838,0.0897278
-0.0964355,0.0894592
-0.0842285,0.0893066
-0.163574,0.089801
-0.0671387,0.0895752
-0.200806,0.0909912
-0.170898,0.0920227
-0.172729,0.092804
-0.00427246,0.0924683
0.0695801,0.0931396
-0.0653076,0.093042
-0.161133,0.0941284
-0.126343,0.0939331
-0.133667,0.0945923
0.0665283,0.0951111
-0.0561523,0.0947449
-0.179443,0.0956177
-0.102539,0.096344
-0.0427246,0.0967468
0.0238037,0.095459
-0.00549316,0.0952087
-0.0604248,0.0947083
-0.0543213,0.0949829
-0.000610352,0.094519
-0.055542,0.0937256
-0.0964355,0.0929749
-0.0360107,0.0919617
-0.0817871,0.0914856
-0.0756836,0.0913391
-0.0311279,0.0891785
-0.0482178,0.0879456
-0.00610352,0.0871399
-0.0378418,0.0861877
-0.0897217,0.0861267
-0.0708008,0.085614
-0.139771,0.0862061
-0.0408936,0.0856873
-0.0592041,0.084198
-0.0561523,0.0840515
-0.0354004,0.083667
-0.178833,0.0842712
-0.100708,0.0839233
-0.0292969,0.0838074
-0.0708008,0.0840698
-0.0891113,0.0842163
-0.131836,0.0846436
-0.120239,0.0856995
-0.0714111,0.0861328
0.000610352,0.0856995
-0.0421143,0.0850281
-0.100098,0.0848755
-0.0280762,0.0847778
-0.0256348,0.0833557
-0.020752,0.0825684
-0.0775146,0.0831665
-0.032959,0.0824158
-0.0305176,0.082074
-0.03479,0.0808044
0.0946045,0.0801331
0.00244141,0.0789856
-0.0366211,0.0784912
0.0262451,0.077356
0.0805664,0.07771
0.0805664,0.0775024
-0.0616455,0.0772461
0.0708008,0.077533
-0.157471,0.0786255
-0.232544,0.0790527
-0.134888,0.078064
-0.0964355,0.0771973
-0.159912,0.0770874
-0.100098,0.0772095
-0.233765,0.0786316
-0.0384521,0.0779175
-0.0891113,0.0781677
-0.0195313,0.0773254
-0.057373,0.0772278
-0.0921631,0.0773193
-0.0958252,0.0771484
-0.150757,0.0777832
-0.159302,0.0791748
-0.167236,0.0802429
-0.0463867,0.0794617
-0.0286865,0.0784485
-0.0463867,0.0779358
-0.0146484,0.0773193
-0.012207,0.0764771
-0.065918,0.0768127
-0.0317383,0.0770813
-0.0579834,0.0776062
-0.0915527,0.0780396
-0.0469971,0.0781311
-0.0366211,0.0779968
-0.032959,0.0781433
0.043335,0.078009
-0.0213623,0.0777832
-0.119629,0.0776917
0.0726318,0.0778809
-0.0671387,0.0775513
-0.0726318,0.076947
-0.113525,0.0771484
-0.180664,0.0779907
-0.0805664,0.0779541
-0.0634766,0.0769531
0.0250244,0.076532
-0.0238037,0.074762
-0.0970459,0.0740234
-0.0311279,0.0726074
-0.00488281,0.0726135
-0.0317383,0.0722351
-0.0787354,0.0723694
-0.129395,0.072052
-0.128174,0.0720703
-0.0457764,0.0711914
-0.154419,0.0720703
-0.105591,0.0725647
-0.163574,0.072406
0.0787354,0.072168
0.0756836,0.0724976
-0.0805664,0.0730652
-0.0994873,0.0740051
-0.0158691,0.0735596
0.0933838,0.0739502
0.032959,0.0742737
-0.0140381,0.0738586
-0.0958252,0.0738525
-0.0946045,0.0744385
-0.0958252,0.0745789
-0.0280762,0.0741028
-0.154419,0.0753357
-0.0872803,0.0757263
-0.140991,0.0770752
-0.0872803,0.0775696
-0.0653076,0.0773254
-0.0836182,0.0774536
0.00305176,0.0760864
-0.181885,0.0774963
-0.0335693,0.07724
0.0708008,0.0773865
-0.0476074,0.0775085
-0.109253,0.0768127
-0.103149,0.0768372
-0.0201416,0.0767456
-0.0195313,0.0762329
-0.101318,0.076355
-0.067749,0.0757141
-0.0146484,0.0746582
-0.0744629,0.0746887
-0.0128174,0.0748108
-0.0738525,0.0751282
-0.115356,0.0752808
0.00610352,0.075061
0.0994873,0.0757996
0.055542,0.0761475
-0.0897217,0.0762695
-0.126343,0.0772034
-0.164795,0.0785461
0.00305176,0.0782288
-0.0866699,0.0781494
-0.182495,0.07995
-0.194702,0.0815308
-0.141602,0.0826843
-0.0866699,0.0827454
-0.032959,0.0822693
0.088501,0.0825378
0.0213623,0.0820435
-0.120239,0.0816711
0.162964,0.0809753
-0.0970459,0.0805969
-0.0830078,0.0804626
-0.145874,0.0803223
-0.120239,0.0805237
-0.151367,0.0796997
-0.170288,0.0810181
-0.0671387,0.0807983
-0.067749,0.0812805
-0.0891113,0.0815979
0.045166,0.0811279
-0.00244141,0.0801941
0.0292969,0.0789795
0.0164795,0.0775513
-0.00549316,0.0759338
-0.0939941,0.0764099
-0.0744629,0.0768677
-0.0360107,0.0767639
-0.0622559,0.07724
-0.133057,0.0784485
-0.055542,0.0783447
-0.0872803,0.0789001
-0.0769043,0.0790894
-0.0286865,0.0784607
-0.0219727,0.0782104
-0.108032,0.0789246
-0.0726318,0.0793213
0.0250244,0.0791382
-0.0439453,0.079364
-0.0738525,0.0789062
-0.130615,0.0794861
-0.078125,0.0795959
-0.0341797,0.0792114
-0.0170898,0.0782471
-0.0787354,0.0772278
0.00732422,0.0764954
-0.0769043,0.0766296
-0.0750732,0.0771301
0.0268555,0.0771606
-0.03479,0.0765381
-0.0537109,0.0767639
-0.0720215,0.0774353
-0.0720215,0.0778381
-0.101318,0.078064
-0.0537109,0.0773071
-0.0616455,0.0766418
0.00366211,0.0762207
-0.0805664,0.0754822
-0.00671387,0.0744934
-0.00427246,0.0729004
-0.0775146,0.0728882
-0.0915527,0.0730469
-0.078125,0.0730225
-0.0842285,0.0728699
-0.0335693,0.0730469
-0.0115967,0.072229
0.10437,0.0729431
0.10437,0.0738464
0.057373,0.0734619
-0.100098,0.0735168
-0.0714111,0.0732727
0.0744629,0.0737366
-0.0805664,0.072998
-0.148315,0.0736084
-0.132446,0.0735229
-0.228271,0.0749329
-0.0317383,0.0745972
0.175171,0.0755127
-0.103149,0.0765137
0.010376,0.0747986
0.088501,0.0753479
0.043335,0.0750732
-0.0262451,0.0748596
-0.0854492,0.0746216
-0.100098,0.0745911
-0.0408936,0.0747986
0.010376,0.074707
0.0134277,0.0738281
-0.0256348,0.073407
-0.00976563,0.0733582
0.067749,0.073291
0.108643,0.0742493
0.032959,0.0738403
0.0512695,0.0731995
0.0256348,0.0733948
0.0854492,0.0732544
0.148315,0.0741821
0.275269,0.0760376
0.131226,0.0760864
0.0860596,0.0752991
0.0616455,0.075885
-0.00610352,0.0750793
0.130615,0.0745605
-0.0256348,0.0728699
-0.131226,0.0727661
-0.241089,0.0743103
-0.213013,0.0761108
-0.288086,0.0781067
-0.177612,0.0796692
-0.216675,0.0806335
-0.219727,0.0812012
-0.233154,0.0825623
-0.143433,0.0831665
-0.123291,0.0829407
-0.0775146,0.0825134
-0.0592041,0.0815918
-0.0195313,0.0800842
0.0592041,0.0800049
0.0115967,0.0794434
-0.0653076,0.0792053
-0.00610352,0.0788147
-0.0134277,0.0789246
-0.0128174,0.0787598
0.00366211,0.0786316
0.0476074,0.0790527
0.0183105,0.0782959
0.0299072,0.0778503
0.0726318,0.0782166
0.0866699,0.0784607
0.0280762,0.0774109
0.020752,0.077063
0.0512695,0.0767029
0.0286865,0.0762207
0.0317383,0.0762512
0.0939941,0.0769714
0.0177002,0.0760681
0.0567627,0.0759094
0.111084,0.07677
0.126343,0.077594
0.119019,0.0780457
0.0256348,0.0769958
0.0732422,0.076947
0.00976563,0.0767029
0.0585938,0.0771179
-0.0640869,0.0769714
-0.0128174,0.0770264
-0.0262451,0.0765198
0.0152588,0.0759216
-0.0360107,0.0760132
-0.0390625,0.0760559
0.0128174,0.075647
0.0109863,0.0750366
0.0799561,0.075116
0.0939941,0.0750427
-0.0128174,0.0746338
0.0274658,0.074292
0.0506592,0.074762
0.0616455,0.0745728
0.152588,0.0760315
0.122681,0.0772156
0.149536,0.0779358
0.0866699,0.077887
0.0720215,0.0778259
-0.00793457,0.077063
0.0109863,0.0768372
0.0219727,0.0769409
0.0292969,0.0761902
-0.055542,0.0757019
-0.0866699,0.0759949
-0.10498,0.0760437
-0.0854492,0.0761841
-0.107422,0.0765137
-0.0384521,0.0760925
-0.00549316,0.0746643
-0.0598145,0.073938
-0.131836,0.0729736
-0.110474,0.073761
-0.00244141,0.0720337
-0.0500488,0.0715027
-0.055542,0.0719543
0.0482178,0.0715515
-0.0598145,0.0717163
-0.0817871,0.0722717
0.000610352,0.0714233
-0.0518799,0.0709412
0.0128174,0.0706604
-0.00732422,0.0706299
0.065918,0.0711548
-0.0177002,0.0710754
0.0897217,0.071875
0.0518799,0.0717163
0.153809,0.072168
0.109863,0.072937
0.168457,0.0741089
0.144043,0.075293
0.158081,0.0760193
0.0714111,0.0752502
0.0793457,0.073291
0.179443,0.0737732
0.0872803,0.0737854
-0.0439453,0.0736084
-0.0286865,0.0738342
0.0170898,0.072699
-0.0134277,0.0725769
-0.0494385,0.071759
-0.125732,0.0706055
-0.0946045,0.0694214
-0.129395,0.0678345
-0.0921631,0.06698
-0.124512,0.0660583
-0.0854492,0.0647156
-0.0592041,0.0629761
-0.057373,0.0621155
-0.0567627,0.0614502
-0.0506592,0.0611816
0.0134277,0.0607239
-0.0427246,0.0609558
-0.0231934,0.0605957
0.137329,0.061853
0.065918,0.0618591
0.0598145,0.0623962
0.098877,0.0632507
0.118408,0.0643066
0.239868,0.0666687
0.0817871,0.0670105
0.043335,0.0672607
0.106201,0.0680237
0.0457764,0.0677551
0.0390625,0.0672791
-0.0012207,0.0670105
0.200195,0.0688049
0.218506,0.0704773
0.10437,0.0712341
0.0354004,0.0712708
0.286865,0.0731995
0.147095,0.0744934
0.153809,0.0754639
0.0878906,0.0752319
0.045166,0.0744202
0.0640869,0.0738708
0.055542,0.0741699
0.0762939,0.0742004
0.0634766,0.0747375
0.065918,0.0748108
0.0604248,0.0747742
0.0695801,0.0753418
0.12085,0.0762878
0.0695801,0.0768311
0.0457764,0.0769287
0.0982666,0.0775208
0.0775146,0.0781677
0.0921631,0.0789795
0.0769043,0.078949
0.0689697,0.0786987
0.0683594,0.0792542
0.103149,0.080011
0.0640869,0.0801453
0.0671387,0.0802002
0.0793457,0.0794678
0.167236,0.0799133
0.167236,0.0800903
0.109253,0.0803162
0.137329,0.0809692
0.0494385,0.0813843
0.130005,0.0825745
0.123901,0.0835938
0.0830078,0.0841309
0.0805664,0.0843811
0.122681,0.0847412
0.0610352,0.0843018
0.128174,0.084729
0.136108,0.0850159
0.137939,0.0860107
0.143433,0.0873901
0.118408,0.0879761
0.101318,0.0876709
0.101318,0.0875793
0.114136,0.0886963
0.125732,0.0894531
0.133057,0.0902283
0.0775146,0.0905212
0.10376,0.0909607
0.128784,0.0914307
0.0909424,0.092334
0.114136,0.0929565
0.0628662,0.093457
0.105591,0.0944397
0.151367,0.0952942
0.144653,0.0965637
0.115356,0.0968201
0.150757,0.0978088
0.0628662,0.0968994
0.158081,0.0973816
0.187378,0.0975708
0.168457,0.0978149
0.0134277,0.0963684
0.10437,0.096698
0.0970459,0.096875
0.0817871,0.0958984
0.067749,0.0957031
0.0653076,0.0959167
0.133057,0.0969604
0.122681,0.0980164
0.045166,0.0983337
0.115356,0.0989929
0.185547,0.0995911
0.133667,0.0999817
0.128174,0.0999695
0.125732,0.100305
0.115967,0.10022
0.115967,0.100525
0.0952148,0.100885
0.126343,0.101575
0.136719,0.102374
0.0360107,0.102228
0.125732,0.103351
0.100098,0.103925
0.100098,0.104694
0.107422,0.104395
0.118408,0.104919
0.150757,0.105829
0.0671387,0.105511
0.0805664,0.105133
0.148315,0.104218
0.155029,0.10495
0.15564,0.106073
0.102539,0.106036
0.0482178,0.106061
0.166016,0.10733
0.132446,0.108643
0.139771,0.108038
0.112915,0.106982
0.128174,0.10722
0.130005,0.108167
0.166016,0.106958
0.123291,0.10672
0.129395,0.106476
0.130005,0.106897
0.13916,0.107837
0.00366211,0.107233
0.144043,0.108118
0.0836182,0.108191
0.0750732,0.108307
0.0769043,0.108417
0.0732422,0.108545
0.118408,0.109033
0.17395,0.109564
0.13916,0.11026
0.090332,0.110706
0.118408,0.110907
0.126343,0.111395
0.136719,0.111841
0.112305,0.112195
0.0689697,0.112195
0.0866699,0.112378
0.0689697,0.112036
0.10498,0.112445
0.0848389,0.112622
0.111694,0.112946
0.0946045,0.112219
0.143433,0.111981
0.145874,0.112347
0.126953,0.112244
0.125122,0.113
0.126343,0.112964
0.0799561,0.112524
0.113525,0.11283
0.0842285,0.112866
0.0817871,0.112457
0.0579834,0.112427
0.0482178,0.111627
0.102539,0.111292
0.10498,0.110962
0.0738525,0.110266
0.0952148,0.110034
0.142212,0.110443
0.0457764,0.109888
0.0720215,0.109467
0.103149,0.109241
0.131836,0.109229
0.0323486,0.108777
0.0683594,0.108423
0.0756836,0.107892
0.0494385,0.107477
0.0756836,0.107092
0.0769043,0.107233
0.0805664,0.106982
0.0622559,0.106091
0.0817871,0.105463
0.0793457,0.105103
0.100708,0.104602
0.0946045,0.104919
0.0775146,0.104114
0.0750732,0.102991
0.0787354,0.102094
0.105591,0.103015
0.109863,0.10307
0.0384521,0.102484
0.0946045,0.102612
0.0622559,0.102557
0.0579834,0.102484
0.0854492,0.102008
0.0793457,0.101575
0.0183105,0.101306
0.0384521,0.100537
0.0762939,0.0994446
0.0292969,0.0984009
0.0830078,0.0979492
0.0579834,0.0972717
0.0408936,0.096521
0.0531006,0.0958923
0.0744629,0.0956848
0.0701904,0.0951233
0.0787354,0.0945435
0.0866699,0.09505
0.0396729,0.0941895
0.0775146,0.0939636
0.0402832,0.0933655
0.125732,0.0935486
0.0732422,0.0930969
0.0305176,0.0918945
0.0384521,0.0916077
0.0854492,0.0916565
0.065918,0.0908325
0.0280762,0.089563
0.0402832,0.0884094
0.0695801,0.0880798
0.0878906,0.0884766
0.0518799,0.0873352
0.0396729,0.0864075
0.0653076,0.0856628
0.0866699,0.0854004
0.0317383,0.084436
0.0854492,0.0839905
0.0488281,0.0828186
0.0842285,0.082428
0.032959,0.0814636
0.0518799,0.0806824
0.0427246,0.079718
0.067749,0.0803589
0.0598145,0.0795166
0.0494385,0.0791748
0.0372314,0.0787964
0.032959,0.0783569
0.0494385,0.0781189
0.0561523,0.0774963
0.0622559,0.0763794
0.0866699,0.0758545
0.0891113,0.0758423
0.0640869,0.0752991
0.0396729,0.0744324
0.088501,0.0739502
0.0671387,0.0734985
0.0604248,0.0734131
0.0543213,0.0730896
0.0262451,0.0726624
0.0445557,0.0720581
0.0732422,0.0719421
0.0769043,0.0715942
0.0518799,0.071167
0.0268555,0.0700012
0.0921631,0.0694641
0.0457764,0.0686523
0.0439453,0.0678406
0.0805664,0.0673828
0.103149,0.0676147
0.0213623,0.0666931
0.0012207,0.065863
0.0457764,0.0655029
0.0665283,0.0655884
0.0360107,0.0654663
0.0457764,0.0648987
0.0262451,0.0641113
0.0231934,0.0636047
0.0402832,0.0630554
0.0634766,0.0622681
0.0769043,0.0625793
0.065918,0.0625183
0.0421143,0.061908
0.043335,0.0610229
0.0756836,0.0614563
0.0280762,0.0610535
0.045166,0.0607483
0.0445557,0.0606995
0.012207,0.0600647
0.0378418,0.0596741
0.0476074,0.0593445
0.0726318,0.0594482
-0.010376,0.0587341
0.0823975,0.0587646
0.0408936,0.0581665
0.0427246,0.0576477
0.0323486,0.057196
0.0299072,0.0567444
0.0524902,0.0564819
0.0518799,0.0559448
0.0177002,0.0550232
0.0286865,0.0549255
0.0549316,0.0545288
0.108032,0.0549866
0.0250244,0.054657
0.00549316,0.0538574
0.0408936,0.0534729
0.055542,0.0538452
0.0311279,0.053772
0.0268555,0.0532776
0.0170898,0.0531555
0.0585938,0.0529114
0.0317383,0.0526489
0.0128174,0.0523682
0.0665283,0.0525024
0.0799561,0.0525574
-0.0323486,0.052179
0.03479,0.0517395
0.0457764,0.0513306
0.0378418,0.0513123
0.0500488,0.0510376
-0.0286865,0.0509216
-0.000610352,0.0496704
0.0628662,0.0495667
0.00488281,0.0493103
0.0445557,0.0493713
0.0360107,0.048877
-0.0146484,0.0483643
0.010376,0.0481873
0.0402832,0.0481873
0.0299072,0.0477905
0.0427246,0.0473389
0.0366211,0.0471863
0.00305176,0.0468201
0.0372314,0.0465393
0.0488281,0.0461609
0.032959,0.0461731
0.0354004,0.0456726
0.0634766,0.0458191
0.0299072,0.0452759
0.0665283,0.0456116
-0.00793457,0.0451721
0.0335693,0.0450806
0.00244141,0.0444275
0.0408936,0.0442383
0.0152588,0.0438965
0.0280762,0.0438049
-0.0109863,0.0435852
0.0238037,0.0433289
0.0360107,0.0431274
0.0421143,0.042926
0.0524902,0.0425842
0.0195313,0.0418884
0.0787354,0.0420349
0.012207,0.0417603
-0.00732422,0.0409485
0.0439453,0.0407166
0.0311279,0.0404236
0.0158691,0.0400391
0.0244141,0.0400208
0.0256348,0.0398315
0.0195313,0.0392944
0.0390625,0.038916
0.0195313,0.0385925
0.0799561,0.0391235
0.0756836,0.0389587
0.00549316,0.0385559
0.0158691,0.0382751
0.0378418,0.0378479
0.0567627,0.037384
0.00793457,0.0372498
0.0213623,0.0374512
0.012207,0.0371155
0.0183105,0.0366333
0.0402832,0.036676
0.0531006,0.0367493
0.00305176,0.0365173
0.0561523,0.0368469
0.0195313,0.0366394
0.0250244,0.0362549
0.045166,0.0359375
-0.00732422,0.0353516
0.020752,0.0351379
0.067749,0.0353821
0.0012207,0.0346375
0.00305176,0.0343872
0.0256348,0.0341919
0.043335,0.0341797
0.0653076,0.0347107
-0.00305176,0.0343628
0.00427246,0.0339294
0.0396729,0.0335999
0.0634766,0.0341309
0.0335693,0.0336426
-0.0189209,0.0334229
0.0415039,0.0334106
0.0549316,0.0336365
0.012207,0.0334595
0.0219727,0.0331543
0.0238037,0.0328735
0.0628662,0.0333252
0.0390625,0.033429
0.0244141,0.0331238
0.0610352,0.0326538
0.0872803,0.0332764
-0.00366211,0.0332581
0.012207,0.0329712
0.0463867,0.0328796
0.00183105,0.0325867
-0.00732422,0.0323914
0,0.0322205
0.00854492,0.03172
0.00183105,0.0314209
-0.00610352,0.0313538
0.03479,0.0310364
0.0195313,0.0304321
0.0372314,0.030481
0.045166,0.0305847
0.0280762,0.0304077
0.0488281,0.0305176
0.00671387,0.0300842
0.0384521,0.0301819
0.0469971,0.0306458
0.0646973,0.0306641
-0.0360107,0.0309753
0.0201416,0.0307312
0.0311279,0.0306824
0.03479,0.0308838
-0.00366211,0.0308167
0.00793457,0.0304932
0.0177002,0.0303711
0.0372314,0.0303162
0.0115967,0.0300659
0.0219727,0.0302551
0.0134277,0.0300171
0.0421143,0.02995
0.0219727,0.0298401
0.0146484,0.0296326
0.0177002,0.0291748
0.0323486,0.0291992
0.0317383,0.0288513
0.00854492,0.0288574
0.0427246,0.028949
0.0213623,0.0291382
-0.0177002,0.0289063
0.0299072,0.0290527
0.0360107,0.0291321
0,0.0290222
0.0537109,0.0293213
0.0213623,0.0291748
0.00366211,0.0287903
0.00305176,0.0282959
0.0628662,0.0287292
0.0201416,0.0281433
0.00793457,0.0281006
-0.00488281,0.0280762
0.0134277,0.027771
0.00854492,0.0275452
-0.0109863,0.0274963
0.0323486,0.0275757
0.0622559,0.0279419
-0.0274658,0.0280212
0.0195313,0.0278259
0.00671387,0.0276978
0.0262451,0.0271606
0.00610352,0.0264648
0.032959,0.0267395
-0.00671387,0.0266479
0.0128174,0.0263977
0.0335693,0.0261658
0.0134277,0.0262207
0.0128174,0.0261353
0.0323486,0.0263367
0.0598145,0.0267517
-0.00671387,0.026416
0.0756836,0.0266418
0.0268555,0.0268799
-0.0140381,0.0264587
-0.0012207,0.0262756
0.0445557,0.0264709
0.0366211,0.0263855
-0.0140381,0.0264526
-0.00366211,0.0262817
-0.0366211,0.0259705
0.0164795,0.026123
0.0164795,0.0262573
-0.0128174,0.0261292
0.00183105,0.0257141
0.0140381,0.0252014
-0.0201416,0.0253723
0.0170898,0.0255005
0.0305176,0.0254089
0.0378418,0.0251526
-0.00366211,0.0248535
0.0158691,0.024823
0.0445557,0.0248535
0.0195313,0.0244995
0.0457764,0.0248352
0.00366211,0.0246521
-0.00671387,0.0244812
0.0390625,0.0242432
0.0134277,0.0239868
-0.000610352,0.0237488
0.00427246,0.0231812
0.0268555,0.0225769
0.0292969,0.0228333
0.0653076,0.0233643
-0.0396729,0.0232971
0.03479,0.0236267
0.0280762,0.0238342
0.022583,0.0240601
0.032959,0.0243042
0.00427246,0.0243286
-0.0390625,0.0246582
0.00915527,0.0244019
-0.000610352,0.0242126
0.0378418,0.0242188
0.0164795,0.0239319
-0.0292969,0.0239441
0.00671387,0.0235229
-0.010376,0.0235596
0.0457764,0.0236328
0.0170898,0.0233337
0.0128174,0.0228149
-0.03479,0.0228027
0.057373,0.023175
-0.0012207,0.022876
0.00732422,0.0226013
0.020752,0.0227722
-0.020752,0.0229004
0.03479,0.0230713
0.0164795,0.0228638
-0.0305176,0.023053
0.00305176,0.0228638
0.0463867,0.0231934
0.0311279,0.0230835
0.00244141,0.0228882
0.0195313,0.022937
0.00854492,0.0228455
0.0268555,0.0227905
-0.0274658,0.0227478
0.0128174,0.0227905
0.00549316,0.0224182
0.00305176,0.0222351
-0.0177002,0.0222351
-0.0134277,0.0220703
0.0378418,0.0220886
-0.0341797,0.0224304
0.00610352,0.0219543
0.0158691,0.0218994
-0.00549316,0.0219177
0.000610352,0.0218933
0.00610352,0.0213257
0.00183105,0.0211426
-0.00427246,0.021106
0.0109863,0.021167
0.0012207,0.0210449
0.0421143,0.0213806
-0.00549316,0.0213257
0.0146484,0.0211487
0.0250244,0.0207764
0.0262451,0.0207642
-0.0262451,0.0208313
0.010376,0.0208679
0.03479,0.0209534
-0.00488281,0.0209412
0.0146484,0.0207581
0.00732422,0.0207642
-0.010376,0.0207397
0.020752,0.0206116
0.0390625,0.0208679
0.00976563,0.0208374
-0.0274658,0.0207886
0.0299072,0.0204895
-0.0274658,0.020697
0.010376,0.0200439
0.00732422,0.0198486
-0.0177002,0.0198853
0.03479,0.0202209
0.00244141,0.0197998
-0.0262451,0.019696
-0.0201416,0.0197571
0.010376,0.0198242
0.00305176,0.0194885
-0.00854492,0.0194092
0.00244141,0.0192688
0.00549316,0.0191956
-0.00854492,0.0192627
0.0109863,0.0192322
0.0396729,0.0194275
0.0201416,0.019458
-0.0177002,0.0193298
-0.00305176,0.0189819
0.0244141,0.0191895
-0.0012207,0.019043
-0.0250244,0.0188477
0.022583,0.0188782
0.00427246,0.0184631
0.0134277,0.0185608
0.0219727,0.0187134
-0.012207,0.0184448
-0.00732422,0.0183838
0.0598145,0.0189758
-0.0286865,0.01922
-0.0213623,0.019165
0.00183105,0.0188904
0.00610352,0.0182983
-0.020752,0.0181091
-0.00915527,0.0178528
0.00610352,0.0176331
0.00610352,0.0174683
-0.0201416,0.0173401
-0.0152588,0.01745
-0.00183105,0.0170776
0.0152588,0.0171387
0.0152588,0.0172852
0.0231934,0.0171387
-0.00549316,0.0170288
0.0213623,0.0169495
0.00244141,0.0169067
0.0256348,0.0170593
-0.0256348,0.0168579
-0.0146484,0.0168335
0.0238037,0.0169434
-0.0115967,0.0167114
-0.0292969,0.0164307
-0.0183105,0.0166016
0.0299072,0.0168274
-0.00549316,0.0166748
0.00549316,0.0165222
-0.0158691,0.016333
0.0421143,0.0165894
0.00427246,0.0163269
-0.00366211,0.016333
0.0280762,0.0161499
0.0372314,0.0162109
-0.0183105,0.0163696
-0.0305176,0.0164795
0.012207,0.0165161
-0.0140381,0.0163879
-0.0183105,0.0162964
-0.0128174,0.0162964
0.045166,0.0166931
-0.0402832,0.0170654
0.0445557,0.017334
0.0268555,0.0174683
-0.00549316,0.0171448
0,0.016803
0.00915527,0.0168335
-0.0354004,0.0170288
0.00610352,0.0170349
0.00549316,0.0170837
-0.0646973,0.0176697
-0.010376,0.0177551
0.0115967,0.0178284
0.00549316,0.0177734
0.000610352,0.0177673
0.00915527,0.0174377
0.00732422,0.0174561
-0.0213623,0.0175232
0.000610352,0.0172791
0.012207,0.0171387
0.0115967,0.0169922
-0.010376,0.0169922
-0.00427246,0.016687
0,0.0166382
0.0360107,0.0168518
0.00793457,0.0168579
-0.0299072,0.0170532
0.00183105,0.016864
0.0231934,0.0167053
0.0201416,0.0168091
-0.00244141,0.0165588
-0.00427246,0.0163025
-0.0152588,0.0161804
0.0268555,0.0163452
0.0146484,0.0164185
-0.0280762,0.0165222
0.043335,0.0166077
0.043335,0.0170166
-0.0268555,0.0170227
-0.0402832,0.0172241
0.022583,0.0173462
0.00305176,0.0173462
0.0012207,0.0172729
-0.0219727,0.0174683
-0.0201416,0.0176147
-0.000610352,0.0175354
0.0317383,0.0177429
-0.0140381,0.0174866
-0.010376,0.0173889
0.0158691,0.0173706
-0.0231934,0.017572
0.0195313,0.0175232
-0.0152588,0.0176636
-0.0128174,0.0175415
-0.00427246,0.0173584
0.00366211,0.0173523
-0.00732422,0.0172913
0.000610352,0.0170776
0.010376,0.0170593
-0.00427246,0.0170288
0.00793457,0.01651
-0.00244141,0.0162476
0.0012207,0.0160461
-0.00305176,0.0160583
0.00854492,0.0160828
0.00671387,0.0159424
-0.0158691,0.0160095
0.00671387,0.0160156
0.000610352,0.0159607
0,0.0157593
-0.00671387,0.0156738
0.0152588,0.0158081
0.0189209,0.0158447
0.0323486,0.0160156
0.0115967,0.0158997
0.0195313,0.01604
0.00549316,0.0158813
0,0.0158569
-0.0152588,0.0157532
0.00915527,0.0155884
-0.0231934,0.0156738
-0.0158691,0.0155945
-0.0274658,0.0157532
-0.0335693,0.0157959
0.0152588,0.0157654
0.00244141,0.0154907
-0.0140381,0.0155762
-0.0219727,0.015741
-0.00732422,0.0156555
0.00183105,0.0152527
-0.0128174,0.0153381
-0.0341797,0.0156433
-0.0231934,0.0155945
-0.0311279,0.0155334
-0.0262451,0.0156128
-0.0415039,0.0157227
-0.0378418,0.015979
-0.0317383,0.016156
-0.0195313,0.0161682
-0.0512695,0.0165527
-0.0305176,0.0164063
-0.0421143,0.0164246
-0.0317383,0.0162964
-0.0341797,0.0163696
-0.0408936,0.0167236
-0.0323486,0.0170471
-0.0268555,0.0172241
-0.0305176,0.0171753
0.00305176,0.0171448
0.00793457,0.0171692
0.00610352,0.0165833
-0.00244141,0.0165039
0.0140381,0.0165283
-0.0134277,0.0166077
-0.00488281,0.0166504
-0.0518799,0.0170776
0.00366211,0.017041
0.0115967,0.0169434
-0.0262451,0.0171997
-0.00366211,0.0171143
0.0976563,0.0179749
-0.0189209,0.0180603
0.0244141,0.0182617
0.0488281,0.01875
0.020752,0.0185974
-0.0262451,0.0187805
-0.0799561,0.019281
-0.0854492,0.0201172
-0.15564,0.0214417
-0.202026,0.0232605
-0.15686,0.0248047
-0.151367,0.0262756
-0.262451,0.0287476
-0.123901,0.029718
-0.0384521,0.0299561
-0.0549316,0.0302246
-0.152588,0.0313171
-0.045166,0.0313354
-0.13855,0.0324524
-0.170898,0.0337585
-0.0616455,0.0341492
-0.107422,0.0351929
-0.247192,0.0376526
-0.265503,0.0400879
-0.230713,0.0421936
-0.0213623,0.0424011
-0.0360107,0.0424438
-0.00610352,0.0423645
-0.00610352,0.0423218
-0.0396729,0.0425598
0.0305176,0.0426331
0.0164795,0.0426025
0.00793457,0.0425293
-0.0769043,0.0431702
-0.302734,0.0461548
-0.0646973,0.0467651
-0.182495,0.0485168
-0.22583,0.050769
-0.200806,0.0526733
-0.188599,0.0545166
-0.170898,0.0561462
-0.136108,0.0574829
-0.10437,0.0585144
-0.125122,0.0597351
-0.189819,0.0615479
-0.100098,0.0624817
-0.0567627,0.0628906
-0.0708008,0.0635315
-0.120239,0.0647278
-0.067749,0.0654053
0.00366211,0.0653748
0.0665283,0.0658875
-0.119629,0.0668945
0.0238037,0.0668091
-0.0360107,0.0670532
-0.0701904,0.0675598
0.0012207,0.0675171
0.0268555,0.0677856
0.0299072,0.0679321
-0.0518799,0.0683594
0.0408936,0.0685364
0.105591,0.0694336
0.0610352,0.0697693
-0.0323486,0.0697571
-0.0146484,0.069751
0.00915527,0.0698181
-0.186768,0.0715454
-0.108643,0.0724121
-0.198364,0.0743225
-0.316772,0.0774719
0.0732422,0.0780762
0.0616455,0.0783508
-0.19043,0.0800232
-0.126953,0.0809814
0.117188,0.0818909
0.10376,0.0825134
-0.227051,0.0844055
-0.15686,0.0856567
-0.178833,0.0872498
-0.194702,0.0886841
-0.250854,0.0908875
-0.264893,0.0931152
-0.172729,0.0945251
-0.0994873,0.0951782
-0.0231934,0.0950012
-0.0323486,0.0950012
0.0567627,0.0953003
-0.0152588,0.0951477
0.117188,0.0962891
0.0268555,0.0964783
-0.0231934,0.0966492
-0.115356,0.0977783
-0.0927734,0.0985657
-0.0585938,0.0990173
-0.0952148,0.0999207
-0.0854492,0.100256
0.012207,0.100342
-0.0354004,0.10058
0.0128174,0.100446
0.123901,0.101648
0.170288,0.102374
-0.0189209,0.102374
0.00488281,0.102179
0.222168,0.103912
0.100098,0.104706
0.0683594,0.105127
0.140381,0.105731
-0.0799561,0.105676
-0.110474,0.105225
-0.0445557,0.10365
-0.106812,0.103149
-0.216064,0.103796
-0.299683,0.104169
-0.285645,0.105786
-0.282593,0.108228
-0.211182,0.10979
-0.113525,0.109399
-0.316162,0.112109
-0.0897217,0.111621
-0.0915527,0.110828
-0.113525,0.111346
-0.067749,0.11095
-0.118408,0.109662
-0.0335693,0.107343
-0.0817871,0.105853
0.0012207,0.105652
-0.012207,0.105414
-0.0402832,0.105756
-0.0848389,0.106543
0.0958252,0.107104
0.162354,0.108423
0.134277,0.109601
0.0964355,0.110486
0.145874,0.111176
0.0238037,0.108386
0.0756836,0.108496
-0.0439453,0.107111
0.0524902,0.105377
0.0811768,0.104181
0.0817871,0.103113
-0.0689697,0.102094
0.045166,0.101184
0.0939941,0.10108
0.0585938,0.100415
0.0823975,0.0993408
-0.168457,0.100024
-0.228271,0.10174
0.0616455,0.101648
-0.281372,0.103259
-0.361938,0.106201
-0.00671387,0.106232
-0.250854,0.108075
-0.0799561,0.107678
-0.184937,0.10929
-0.221558,0.111145
-0.0976563,0.11142
-0.175171,0.113159
-0.15564,0.114447
-0.0646973,0.114795
0.206909,0.116345
0.149536,0.117432
-0.0616455,0.116992
0.252075,0.118903
0.0823975,0.119403
-0.214233,0.121399
-0.0720215,0.122028
0.0506592,0.120667
-0.302734,0.122607
-0.144043,0.122064
0.257568,0.121472
0.410156,0.124841
0.0878906,0.125104
-0.0146484,0.123346
0.159302,0.123669
0.100098,0.123499
0.0897217,0.123358
0.109863,0.122186
-0.377808,0.124396
-0.135498,0.123962
-0.043335,0.122449
-0.0311279,0.120251
-0.224609,0.119849
-0.0317383,0.118439
0.205078,0.119495
-0.171509,0.120978
-0.314941,0.123804
-0.263062,0.125867
-0.391846,0.129633
-0.140381,0.129865
-0.145264,0.131049
-0.214233,0.132959
-0.24353,0.134241
-0.15564,0.134869
-0.248413,0.136768
0.0933838,0.136749
-0.0323486,0.136218
0.177002,0.137866
0.0384521,0.137897
-0.0469971,0.138239
0.0476074,0.137476
0.343628,0.139209
0.0518799,0.139539
0.00854492,0.139575
0.12207,0.138574
0.231323,0.139886
0.0848389,0.140051
0.125122,0.139899
0.297852,0.142078
0.155029,0.142523
0.265503,0.144733
0.111694,0.144781
-0.524902,0.14787
-0.351563,0.148389
-0.127563,0.146808
-0.388184,0.147864
-0.480957,0.150562
-0.494995,0.154376
-0.536499,0.15658
-0.043335,0.156116
-0.308228,0.158282
0.0500488,0.157648
-0.0537109,0.157507
-0.135498,0.157678
0.130005,0.158643
-0.164795,0.159473
-0.154419,0.161005
0.200806,0.162891
-0.000610352,0.162494
-0.12085,0.162854
0.0860596,0.162756
0.354614,0.164679
0.286255,0.166199
0.0756836,0.165991
0.119629,0.165729
0.213623,0.167627
0.0610352,0.16748
-0.123901,0.16828
-0.117798,0.168933
-0.17334,0.169855
-0.244751,0.171484
-0.26001,0.173395
-0.322876,0.176172
-0.325317,0.178485
-0.230103,0.1802
0.100708,0.180383
-0.0354004,0.179053
-0.10376,0.177808
-0.065918,0.17785
-0.0311279,0.175348
0.118408,0.172913
0.00488281,0.172894
-0.00976563,0.170483
-0.162964,0.171313
0.195923,0.171423
0.412598,0.173334
0.281372,0.175171
0.113525,0.174554
-0.209351,0.175092
0.0762939,0.175208
0.00976563,0.173236
0.126343,0.173004
0.0823975,0.173212
0.152588,0.172217
0.211182,0.173505
-0.408936,0.175452
0.0506592,0.175238
0.0646973,0.175378
-0.216064,0.174512
-0.0915527,0.173987
-0.460815,0.176019
-0.504761,0.176965
-0.516968,0.181256
-0.154419,0.182654
-0.20752,0.183136
-0.0756836,0.182892
-0.00488281,0.182043
0.0524902,0.18147
0.00671387,0.177759
0.0878906,0.177283
-0.161743,0.178467
-0.152588,0.179681
-0.113525,0.178571
0.178223,0.180035
-0.00915527,0.178076
-0.0927734,0.177289
0.201416,0.176154
0.327759,0.176801
0.461426,0.177496
0.269165,0.178784
-0.0311279,0.177643
0.0408936,0.175909
0.00915527,0.173566
0.175781,0.173767
0.0622559,0.171906
-0.0323486,0.171295
0.245972,0.173431
-0.213013,0.173792
-0.598755,0.179395
0.119629,0.180121
0.152588,0.181171
-0.411377,0.181848
-0.557251,0.186902
-0.48645,0.191681
-0.252686,0.192987
-0.0653076,0.191327
-0.22522,0.192731
0.0695801,0.192175
0.130005,0.190497
0.143433,0.190381
-0.192261,0.189648
-0.0183105,0.188715
-0.221558,0.185681
0.106812,0.183234
-0.0866699,0.182825
-0.136719,0.18031
-0.0653076,0.176154
0.125732,0.172461
-0.0683594,0.16778
0.0567627,0.167914
0.119629,0.166028
0.270386,0.168231
0.245361,0.170148
0.50354,0.173828
0.0604248,0.173132
0.140381,0.172888
0.0427246,0.171771
-0.0964355,0.170728
-0.0701904,0.171423
-0.0830078,0.171045
-0.0671387,0.170856
-0.214844,0.169458
0.108643,0.167682
0.0634766,0.16756
-0.112915,0.167493
0.043335,0.16579
-0.132446,0.166504
0.0140381,0.165405
-0.270386,0.166931
-0.545654,0.170654
-0.219727,0.170404
-0.254517,0.170349
0.155029,0.168671
-0.123901,0.166656
-0.0518799,0.164874
0.343628,0.167303
0.0860596,0.16781
-0.130615,0.168079
-0.151367,0.168933
0.055542,0.169177
-0.336304,0.171356
-0.0146484,0.171454
0.107422,0.17243
0.0189209,0.17099
0.0744629,0.169775
-0.0842285,0.166492
0.010376,0.163782
0.155029,0.164197
0.0494385,0.162598
-0.0396729,0.162231
0.00305176,0.162164
0.139771,0.162299
-0.202637,0.163501
-0.0512695,0.162488
0.114746,0.161523
-0.0292969,0.157727
-0.0543213,0.157764
0.435181,0.161469
0.276489,0.162073
-0.109863,0.162256
-0.219727,0.159845
-0.0738525,0.155536
-0.0817871,0.151184
-0.0714111,0.150354
-0.378418,0.152063
-0.435791,0.155664
-0.441284,0.160028
-0.377197,0.163275
0.00793457,0.163287
0.128174,0.16369
0.178223,0.163855
0.142822,0.163757
-0.0396729,0.163019
-0.055542,0.161792
0.236206,0.164063
-0.0762939,0.163898
-0.0866699,0.16275
-0.202637,0.161499
-0.285645,0.159741
-0.0189209,0.157239
0.00427246,0.15697
0.0299072,0.15686
0.0427246,0.157196
0.0219727,0.155658
-0.00549316,0.15509
-0.0244141,0.155011
0.0262451,0.152814
-0.0457764,0.151141
-0.0628662,0.145782
-0.131226,0.145898
-0.057373,0.144946
0.0579834,0.141412
0.119629,0.137036
-0.0195313,0.132367
0.108032,0.13092
0.248413,0.132751
0.127563,0.131775
-0.128174,0.132361
-0.258179,0.133643
-0.12207,0.133429
-0.222778,0.133734
-0.317993,0.136731
-0.498657,0.139502
-0.380249,0.142236
-0.0268555,0.141638
-0.088501,0.141156
-0.0738525,0.141241
0.0854492,0.140839
0.0750732,0.140906
-0.0860596,0.141199
0.106812,0.141071
0.0524902,0.138892
0.0341797,0.13678
-0.125122,0.132996
-0.067749,0.133069
-0.0897217,0.132562
-0.108643,0.133221
0.0195313,0.132452
0.0164795,0.131915
0.0421143,0.131506
-0.133667,0.132172
0.111084,0.131134
0.148315,0.131531
-0.022583,0.131122
-0.0909424,0.130902
-0.00671387,0.130536
0.0292969,0.129504
-0.045166,0.129816
0.0134277,0.127246
-0.231323,0.124103
-0.168457,0.12359
0.107422,0.122119
0.0567627,0.121136
-0.0427246,0.120325
-0.186768,0.121674
0.0811768,0.119049
-0.0750732,0.118939
-0.0762939,0.118396
-0.105591,0.117938
-0.164795,0.119031
-0.26062,0.118274
-0.246582,0.120593
-0.206909,0.121588
-0.0830078,0.122229
-0.291748,0.124402
-0.147095,0.125031
0.00610352,0.124988
0.055542,0.123993
-0.0579834,0.124078
-0.111694,0.124799
0.0323486,0.125092
0.101929,0.124713
0.0115967,0.122803
-0.0775146,0.123065
-0.0390625,0.122308
-0.0256348,0.122272
-0.0909424,0.122638
0.0970459,0.119257
-0.118408,0.117676
0.00183105,0.116595
0.00488281,0.114447
-0.0714111,0.114423
-0.012207,0.113727
-0.0402832,0.113416
-0.03479,0.109979
-0.0500488,0.106122
0.03479,0.102057
-0.090332,0.0991882
0.0848389,0.0999573
-0.107422,0.0997498
-0.113525,0.0991028
-0.100098,0.0986755
0.0933838,0.0992126
-0.0317383,0.0989746
-0.266724,0.0992798
-0.184937,0.100366
-0.134888,0.100848
-0.067749,0.0994995
-0.169067,0.0983337
-0.333252,0.101477
-0.100708,0.102441
-0.119629,0.103339
-0.0531006,0.103442
-0.0744629,0.103967
0.043335,0.104346
0.100708,0.105109
0.0604248,0.10545
0.122681,0.106219
-0.111084,0.106702
-0.0421143,0.105811
-0.111694,0.106354
-0.162354,0.107397
-0.147095,0.107672
-0.172729,0.109204
-0.17334,0.109857
0.0543213,0.107916
0.112305,0.107764
0.0158691,0.106641
0.00976563,0.104156
0.0335693,0.103271
0.0915527,0.101959
-0.0811768,0.0995911
-0.147095,0.0960754
-0.119629,0.0934692
0.0646973,0.0938477
-0.0897217,0.0938599
-0.0402832,0.0935242
0.0524902,0.0931946
-0.0622559,0.0930664
0.0494385,0.0927002
-0.148315,0.0931152
-0.0158691,0.092749
-0.19104,0.0943176
-0.194092,0.0950073
-0.142822,0.0957581
-0.19104,0.0967712
-0.067749,0.0963623
0.0836182,0.0970032
-0.0775146,0.0976135
-0.128784,0.0984802
-0.032959,0.0974731
0.0012207,0.0963745
-0.126343,0.0961548
-0.0811768,0.0967407
-0.0683594,0.0965149
-0.0604248,0.097052
0.0646973,0.097406
-0.0128174,0.0970825
0.0427246,0.0973755
0.00671387,0.0951294
0.128174,0.0947266
-0.0653076,0.0943054
-0.0158691,0.0938965
-0.116577,0.094635
-0.12085,0.0939758
0.00915527,0.0932556
0.010376,0.0926086
-0.045166,0.0922974
-0.0463867,0.0917053
-0.043335,0.0904907
0.114136,0.0890259
0.0115967,0.086676
0.125122,0.0858582
-0.057373,0.0856018
0.00671387,0.0827515
0.0445557,0.0817261
-0.088501,0.08255
-0.145874,0.0834534
-0.142212,0.0842957
-0.0610352,0.0837891
-0.0775146,0.0842407
-0.167847,0.0848999
-0.101929,0.0858032
0.133057,0.0863586
-0.139771,0.0873657
-0.189209,0.0890015
0.043335,0.0885254
-0.0305176,0.0878601
-0.0762939,0.087439
-0.0994873,0.0884155
-0.0616455,0.0889832
-0.245972,0.0907288
-0.00366211,0.0906433
-0.0769043,0.0910095
-0.0390625,0.0910522
0.0488281,0.09104
-0.0537109,0.0912292
-0.0592041,0.090918
-0.139771,0.0914673
0.287476,0.0932678
0.0891113,0.0930237
0.0323486,0.0923462
0.140381,0.0928162
-0.0897217,0.093396
-0.128174,0.0920105
0,0.0901611
-0.0921631,0.0897339
-0.22644,0.0913208
-0.0146484,0.0897766
-0.0244141,0.0866882
0.0531006,0.0862122
0.0134277,0.0851501
0.0823975,0.0854431
-0.0646973,0.0853455
-0.0256348,0.0851685
-0.0183105,0.0843445
-0.178833,0.0855286
-0.22583,0.0865601
0.0946045,0.0863953
-0.210571,0.0880798
0.282593,0.0897888
-0.00183105,0.0881836
-0.151367,0.0882263
0.0463867,0.0869629
0.0177002,0.0854065
-0.19043,0.0867676
-0.184326,0.0874878
-0.200806,0.0893372
-0.222778,0.0914673
-0.108032,0.0922119
0.0274658,0.091571
0.114136,0.0919006
0.0543213,0.0909729
-0.193481,0.0917114
-0.0250244,0.0913147
0.0665283,0.0910828
0.125122,0.0919312
0.0378418,0.0917847
0.0549316,0.0917114
0.258179,0.0937988
0.109863,0.0934143
-0.128174,0.0945374
0.0494385,0.0931213
0.0231934,0.0914124
-0.115967,0.0911438
-0.280151,0.0920349
-0.279541,0.0941528
-0.231934,0.095636
-0.0805664,0.0956665
-0.112915,0.0955078
0.067749,0.0958557
0.0653076,0.0964966
-0.0567627,0.0958008
0.00610352,0.09505
-0.00854492,0.0944519
-0.10498,0.0948975
0.0817871,0.0950684
-0.0372314,0.0953125
-0.106812,0.0959534
0.107422,0.0969604
0.394897,0.0996277
-0.115356,0.100128
-0.205078,0.10202
0.0335693,0.10119
0.0292969,0.100275
-0.168457,0.101868
-0.175781,0.103522
-0.256958,0.10564
0.0915527,0.106091
-0.0665283,0.106323
-0.12207,0.106403
-0.0714111,0.107001
0.078125,0.106531
0.0476074,0.106433
0.0317383,0.106683
-0.0848389,0.107086
-0.0579834,0.106781
0.292969,0.108252
0.00976563,0.106927
0.328369,0.109601
-0.0317383,0.109143
-0.0164795,0.107629
0.174561,0.108356
0.0274658,0.1073
-0.114136,0.107043
-0.410767,0.109259
-0.218506,0.111011
0.142822,0.112134
-0.181885,0.11319
-0.397339,0.116168
-0.090332,0.116455
0.00671387,0.114063
0.00244141,0.11405
-0.0683594,0.113965
-0.0439453,0.114014
-0.0921631,0.114447
-0.0274658,0.114185
0.144043,0.115033
0.00183105,0.113654
-0.145264,0.112231
-0.0115967,0.111456
0.206909,0.113202
0.144653,0.113245
0.0891113,0.113239
-0.0201416,0.112158
0.100098,0.113159
0.234985,0.114587
-0.0750732,0.113074
-0.120239,0.11413
-0.0738525,0.114624
0.0268555,0.114362
-0.0579834,0.114807
-0.162354,0.115607
0.0897217,0.115857
-0.0775146,0.116376
-0.144653,0.117639
-0.00488281,0.1159
-0.0549316,0.114191
-0.143433,0.114679
-0.167847,0.114252
-0.183105,0.113257
-0.180664,0.115045
-0.184326,0.115375
-0.0201416,0.115112
-0.0762939,0.115698
0.0341797,0.114136
-0.120239,0.113495
-0.00244141,0.111511
-0.110474,0.110388
0.15625,0.11087
-0.124512,0.111841
0.0341797,0.111041
0.0616455,0.111115
-0.000610352,0.109186
0.100708,0.109943
-0.0933838,0.110211
-0.0915527,0.109875
0.115967,0.110657
-0.163574,0.111743
0.15564,0.110718
-0.0366211,0.109985
0.0402832,0.109106
0.112915,0.109741
0.0927734,0.110437
-0.0189209,0.109467
-0.0634766,0.1073
-0.032959,0.104834
-0.123291,0.103748
-0.098877,0.103931
-0.153198,0.104333
-0.189209,0.105548
-0.101318,0.105908
-0.0219727,0.10556
-0.185547,0.107355
-0.194092,0.10921
0.146484,0.109625
0.0012207,0.10882
-0.149536,0.109943
-0.100098,0.109875
0.00427246,0.108844
0.128784,0.106183
0.0189209,0.105219
0.010376,0.103271
0.120239,0.104138
-0.0561523,0.104407
-0.0897217,0.103619
0.0128174,0.10199
-0.0933838,0.100354
-0.128174,0.10072
-0.0756836,0.100812
-0.0494385,0.100085
-0.0378418,0.0997498
-0.0421143,0.0993896
-0.0299072,0.0992126
0.157471,0.10047
0.0567627,0.100189
-0.0622559,0.100232
-0.0012207,0.0973145
-0.0445557,0.0976624
-0.139771,0.0957764
-0.0646973,0.096106
-0.140381,0.097345
-0.184937,0.0974487
-0.161743,0.0987915
-0.0244141,0.0978943
-0.166626,0.0954529
-0.0488281,0.0937561
0.0292969,0.0926208
-0.00244141,0.0908264
-0.147705,0.0883301
-0.0463867,0.0878906
-0.032959,0.0881531
-0.0970459,0.0890991
-0.143433,0.0898499
-0.390625,0.0933167
0.233765,0.0947327
0.0421143,0.0948792
-0.106812,0.0945068
-0.0604248,0.0950928
0.0689697,0.0943298
0.0439453,0.0946533
-0.00244141,0.0926086
0.0134277,0.0912964
-0.0805664,0.0912109
-0.0665283,0.0916748
-0.114746,0.0918213
0.155029,0.0910217
0.0268555,0.0905396
-0.00732422,0.0894104
0.0762939,0.0894348
0.0286865,0.0894531
-0.0402832,0.0892761
-0.240479,0.0900574
-0.136108,0.0905212
-0.129395,0.09104
-0.211182,0.0917053
-0.235596,0.0940125
-0.134888,0.094812
-0.125732,0.094635
-0.0341797,0.0932983
-0.00488281,0.0915161
-0.0653076,0.0903625
0.022583,0.0887451
-0.0372314,0.088916
-0.238037,0.0905334
-0.339966,0.0935913
0.283813,0.0952271
0.0946045,0.0961487
-0.289307,0.097937
-0.0665283,0.0970398
0.148315,0.0972778
0.123291,0.0981689
-0.100098,0.0985535
-0.043335,0.0989807
-0.0939941,0.0989136
-0.169678,0.0996765
-0.0634766,0.0993958
-0.206299,0.100299
-0.043335,0.0990967
-0.0866699,0.098407
-0.0115967,0.0981567
0,0.0977539
0.000610352,0.0966309
-0.00427246,0.0957458
0.0360107,0.0959167
0.129395,0.0965759
0.183716,0.0980835
0.108032,0.0979309
0.00793457,0.0970215
0.0274658,0.0957642
-0.0799561,0.0946716
0.00732422,0.0937317
-0.140381,0.0949158
-0.223389,0.0952942
-0.227661,0.0956299
-0.258789,0.0967529
-0.211792,0.0988586
-0.055542,0.0979187
-0.0372314,0.09729
0.12085,0.0984558
-0.0714111,0.0978821
-0.0976563,0.0986694
-0.0616455,0.0991821
-0.0366211,0.0983459
-0.0378418,0.0981628
-0.0939941,0.0982056
-0.148926,0.0995667
-0.0793457,0.0994263
-0.0299072,0.0984436
-0.0927734,0.0986145
-0.0543213,0.0986633
0.0396729,0.0986816
-0.0286865,0.0985474
-0.0628662,0.098877
-0.0231934,0.0975342
-0.0830078,0.0977966
-0.0915527,0.0980896
0.0146484,0.0982239
-0.0610352,0.0983887
-0.03479,0.0973389
-0.0762939,0.0974548
-0.0793457,0.0968445
-0.0689697,0.0956848
-0.115967,0.0952271
-0.128174,0.0962646
-0.0952148,0.0955505
-0.125732,0.0963196
-0.10498,0.0970764
-0.0482178,0.0975342
-0.055542,0.0966125
-0.0219727,0.0963684
-0.0164795,0.0962036
-0.0476074,0.0957092
0.00793457,0.0943542
0.0549316,0.0909973
0.043335,0.089093
0.0378418,0.0890503
0.0616455,0.0885986
0.043335,0.0884277
-0.0421143,0.0881592
0.0335693,0.0880554
0.0714111,0.0887451
-0.00366211,0.0886475
-0.205688,0.0898987
-0.132446,0.0905579
-0.0878906,0.0902893
-0.105591,0.0897949
-0.19165,0.0914429
-0.0732422,0.0921021
-0.0384521,0.0917236
-0.111694,0.0925537
0.0317383,0.0924683
-0.00549316,0.0901184
-0.114746,0.0899048
-0.0195313,0.0888062
-0.0500488,0.0871948
-0.146484,0.0863037
-0.163574,0.0865906
-0.187378,0.087207
-0.140991,0.0882751
-0.0994873,0.0892212
-0.125732,0.0898254
-0.164185,0.0912415
0.0518799,0.0913879
-0.00671387,0.0890747
-0.0592041,0.0862671
-0.0274658,0.0837036
-0.00732422,0.0828308
-0.0231934,0.0801697
-0.0500488,0.0800049
-0.067749,0.0791992
-0.078125,0.0787476
-0.0616455,0.078363
-0.0305176,0.0782349
-0.0543213,0.0778381
-0.0445557,0.0765869
-0.0231934,0.0761841
-0.00915527,0.0742126
-0.00427246,0.073822
-0.0415039,0.0733704
-0.0286865,0.0735413
-0.00732422,0.0736145
-0.00915527,0.0737
-0.0689697,0.0743469
-0.012207,0.0741089
-0.0335693,0.0731506
-0.0189209,0.0715027
-0.0317383,0.0707397
-0.0354004,0.0710144
0.0213623,0.0709534
-0.0939941,0.0710937
0.0439453,0.07146
0.0518799,0.070575
0.0115967,0.068457
0,0.0661804
0.132446,0.064917
0.0561523,0.0633606
-0.0164795,0.06297
0.0543213,0.0631409
0.0384521,0.0623169
0.00671387,0.0616699
-0.15564,0.0622498
-0.0695801,0.0623291
-0.0811768,0.0627747
-0.0299072,0.0626953
-0.106201,0.0628174
-0.0744629,0.0620728
0.0012207,0.0612915
-0.0195313,0.0611877
0.000610352,0.0602661
0.0146484,0.0598694
0.022583,0.0596985
0.0164795,0.0595764
0.032959,0.0592773
-0.045166,0.0594971
0.03479,0.0590149
-0.0299072,0.0583984
-0.0219727,0.0584717
0.0109863,0.0579712
0.100098,0.0586243
-0.0946045,0.0588074
0.0195313,0.0582092
0.145264,0.0589722
0.0128174,0.0579407
-0.00854492,0.0567444
0.0604248,0.0563965
0.0158691,0.0552979
-0.0274658,0.0545227
-0.0305176,0.0543457
0.0927734,0.054718
0.0238037,0.0547363
0.0531006,0.0551025
0.102539,0.0556519
0.0616455,0.056189
0.0726318,0.056366
0.0842285,0.0567749
0.0598145,0.0569946
-0.00488281,0.056427
0.00915527,0.0560852
-0.101929,0.0566833
-0.0262451,0.0566101
0.0360107,0.0562561
-0.043335,0.0566528
-0.065918,0.0552551
0.0390625,0.0543213
0.0439453,0.0538818
0.0408936,0.0532349
0.0323486,0.0516418
0.0286865,0.0511963
0.043335,0.0512451
0.0585938,0.0507141
0.0927734,0.0513245
-0.000610352,0.0512756
0.0378418,0.0505066
0.0390625,0.0507019
0.0396729,0.0505981
0.0543213,0.0496765
0.0457764,0.0484985
-0.0500488,0.0471252
0.112915,0.0468445
0.0231934,0.0460815
0.0115967,0.0449402
0.0274658,0.043573
-0.012207,0.0431763
0.00854492,0.0431946
0.0231934,0.0428345
0.0177002,0.0427368
-0.0360107,0.0430237
0.00671387,0.0428589
0.111694,0.0434753
0.0280762,0.0430786
0.067749,0.0429749
0.0390625,0.042749
0.0213623,0.0426575
0.0109863,0.0422241
-0.00427246,0.0418213
-0.0964355,0.0425537
0.0805664,0.0432678
0.0012207,0.0432373
-0.0390625,0.0432129
-0.0012207,0.0429382
0.0439453,0.0433044
0.0518799,0.0437317
0.0689697,0.0437317
-0.010376,0.0437134
0.012207,0.0434998
0.0567627,0.0438782
0.00488281,0.0436096
-0.0244141,0.0434998
0.00183105,0.0433044
0.00183105,0.0423828
0.0299072,0.0422424
0.00305176,0.0417542
-0.0323486,0.0419617
0.0665283,0.042627
0.0299072,0.0416016
0.0598145,0.0416382
-0.0213623,0.041687
-0.0109863,0.0412537
0.0140381,0.0410095
0.0598145,0.0415405
-0.0317383,0.0403015
0.0415039,0.0400208
-0.0134277,0.0393433
-0.0354004,0.0393982
0.0213623,0.0385498
0.0671387,0.0384766
0.0427246,0.0388916
0.0567627,0.0392639
0.0396729,0.0396545
0.00488281,0.0395569
0.0689697,0.0400208
0.0384521,0.0402405
-0.020752,0.0401184
-0.020752,0.0398743
0.0830078,0.0403564
-0.0213623,0.040271
-0.0219727,0.040271
-0.0158691,0.0403198
0.00244141,0.0393433
-0.00366211,0.0384338
0.0140381,0.0383789
0.0311279,0.0372375
-0.0189209,0.0372986
0.00488281,0.037262
0.0317383,0.0369751
-0.00854492,0.0369019
-0.0115967,0.0367432
0.0109863,0.0365479
0.0543213,0.0361633
-0.0262451,0.0361877
-0.0115967,0.0357727
0.055542,0.0353027
-0.00488281,0.0347351
0.0415039,0.0344238
-0.0231934,0.0338135
0.00488281,0.0332642
0.0177002,0.0333923
-0.0140381,0.0334412
-0.0109863,0.0325317
0.0488281,0.0327576
-0.0286865,0.0326843
-0.0708008,0.032959
0.00610352,0.0323608
0.0701904,0.0326721
-0.0115967,0.0323486
-0.0299072,0.0322388
0.0201416,0.0321167
0.00366211,0.0318665
-0.0170898,0.031604
0.0305176,0.0313232
0.0427246,0.0308228
-0.0140381,0.030957
0.0335693,0.0309143
-0.0244141,0.0307678
-0.00976563,0.0304688
0.0268555,0.0301941
-0.00671387,0.0298035
-0.0231934,0.0295349
-0.0323486,0.0287292
-0.0360107,0.0288574
-0.00854492,0.0288269
-0.0201416,0.0287537
-0.0592041,0.0292236
-0.0115967,0.0292542
-0.00915527,0.0291138
0.00610352,0.0289978
-0.0262451,0.0289001
-0.00366211,0.0288696
0.0476074,0.0282288
0.0415039,0.028363
-0.00549316,0.0277405
0.0286865,0.0276367
0.0201416,0.0276245
0.0170898,0.0276855
0.00732422,0.0277161
-0.0170898,0.0269226
-0.0390625,0.0265076
-0.0402832,0.0268982
-0.00366211,0.0265442
-0.0012207,0.0265442
-0.0335693,0.0264404
-0.00305176,0.0259521
0.0878906,0.0261414
0.0976563,0.0270142
0.0817871,0.02771
-0.0299072,0.0274414
0.00671387,0.0274597
0.00976563,0.0273132
0.0274658,0.0275696
-0.0366211,0.0279175
-0.117798,0.0287964
-0.0561523,0.0293274
-0.0323486,0.0293274
-0.0341797,0.0290039
-0.0158691,0.0288635
-0.00671387,0.0283325
0.00183105,0.0281372
-0.0305176,0.0283325
-0.0317383,0.0285095
-0.0445557,0.0283569
-0.0689697,0.0287292
-0.0384521,0.0286987
-0.0177002,0.0287415
0.0128174,0.0285156
-0.0109863,0.0284119
-0.0256348,0.0279968
-0.00427246,0.0276123
0.0384521,0.0274292
0.00854492,0.0271179
-0.0250244,0.0273193
-0.0140381,0.02677
-0.0189209,0.0265747
-0.0177002,0.0265442
0.00854492,0.0264221
-0.045166,0.0260437
0.00610352,0.0258911
-0.0250244,0.0259216
-0.0219727,0.0259827
-0.0115967,0.0260742
-0.00671387,0.0261047
-0.0219727,0.0261841
-0.0164795,0.0260376
-0.0231934,0.0260803
-0.0201416,0.0262329
0.00305176,0.025946
-0.043335,0.0262939
-0.010376,0.0262817
0.0476074,0.0266479
0.020752,0.0263123
-0.0744629,0.0267944
-0.0311279,0.0269897
0.0250244,0.0266846
0.0354004,0.0269897
0.00976563,0.0266724
-0.0390625,0.0268311
-0.0323486,0.0271057
-0.0238037,0.0271667
-0.00793457,0.0271057
-0.0158691,0.0271545
-0.0177002,0.0268433
0.00610352,0.0266174
-0.0170898,0.0260803
-0.00244141,0.0260437
0.0189209,0.025531
0.0262451,0.0256775
-0.0299072,0.0256775
-0.03479,0.025824
0.010376,0.0258911
-0.00366211,0.0257568
-0.0531006,0.0259827
-0.0585938,0.0261414
-0.0378418,0.0263794
-0.043335,0.0264771
-0.0238037,0.0264709
-0.00366211,0.0264099
-0.0616455,0.0267578
-0.00488281,0.0267395
0.00427246,0.0265503
-0.0402832,0.0266296
-0.0274658,0.0265442
0.00732422,0.026532
-0.0317383,0.0266479
-0.032959,0.0263855
-0.00366211,0.0263062
-0.0537109,0.0267517
-0.0158691,0.0268494
-0.0280762,0.0268677
-0.0268555,0.0270996
0.0152588,0.0267761
-0.0158691,0.0265198
0.00183105,0.0264832
-0.0238037,0.0264343
0.0292969,0.0265259
0.0720215,0.0270752
-0.0195313,0.0271973
-0.0817871,0.0278442
-0.0543213,0.0279968
-0.0140381,0.0277344
-0.00244141,0.0277222
-0.0109863,0.0278198
-0.0671387,0.0281555
-0.0012207,0.0281372
-0.00732422,0.0273315
0.0793457,0.0271484
-0.0421143,0.0267517
0.0311279,0.0267639
0.0500488,0.0271973
-0.00854492,0.0271851
-0.00366211,0.026947
-0.0170898,0.0267517
0.0189209,0.0257629
0.00549316,0.0252563
0.0213623,0.0251465
-0.0128174,0.0249329
0.00915527,0.0248657
0.0585938,0.0253845
-0.0170898,0.0255371
-0.0134277,0.0253662
0,0.0250488
-0.0134277,0.0247375
0.0140381,0.0241882
-0.032959,0.0241333
-0.0109863,0.0240662
-0.00244141,0.0239624
-0.00427246,0.0238953
-0.045166,0.0240906
0.00793457,0.0241272
-0.0152588,0.0238953
0.00366211,0.0238464
-0.00732422,0.0236694
0.0109863,0.0236389
0.0231934,0.0236816
-0.00183105,0.0235229
-0.00549316,0.0234924
0.0311279,0.0233521
0.0311279,0.0236023
-0.0274658,0.0236267
0.0231934,0.0236389
0.0274658,0.0237976
-0.0341797,0.0240723
0.0177002,0.0240295
-0.00183105,0.0238831
0.0170898,0.023822
0.0299072,0.0239197
0.0140381,0.0240295
-0.00793457,0.0236755
0.0415039,0.0239868
-0.00549316,0.0235657
0.0408936,0.0237671
0.0341797,0.0233643
-0.0177002,0.02323
-0.0183105,0.0231628
0.0469971,0.0232788
0.0292969,0.0234741
-0.0372314,0.0234558
-0.0500488,0.0236328
0.0323486,0.0237183
-0.0823975,0.0244629
-0.0140381,0.0244446
-0.0787354,0.0250549
-0.0640869,0.0256348
-0.0476074,0.0259399
-0.0231934,0.0261475
-0.0476074,0.0264343
-0.0646973,0.0268188
-0.0408936,0.0269287
0.0012207,0.026593
-0.0238037,0.0267273
-0.00488281,0.0267395
0.0201416,0.0264099
0.088501,0.026709
-0.0897217,0.0272278
-0.0274658,0.0270691
0.0366211,0.0271973
0.0170898,0.0273315
0.0012207,0.0267273
-0.0360107,0.0270386
-0.0195313,0.0271912
0.010376,0.0268921
0.0158691,0.0267761
0.0128174,0.0268311
0.0189209,0.0267029
0.012207,0.0264954
-0.00549316,0.0265137
-0.0274658,0.0262512
-0.0134277,0.0262268
-0.0256348,0.0262024
-0.0250244,0.0261841
-0.0244141,0.0262756
-0.0268555,0.0263855
-0.0311279,0.0266785
0.0195313,0.0266357
-0.0244141,0.0265869
0.0213623,0.0260803
0.0195313,0.0260803
-0.0390625,0.0256531
0.0665283,0.0257751
0.0335693,0.0259705
-0.00427246,0.0259888
-0.0286865,0.0261658
-0.0201416,0.0256958
-0.0140381,0.025824
0.00183105,0.025769
-0.00183105,0.0249939
-0.0183105,0.0247559
-0.0469971,0.0249146
-0.0219727,0.0246338
0.0439453,0.0249878
-0.0128174,0.0250793
0.0219727,0.0251282
0.0292969,0.0252319
0.065918,0.0258362
0.0842285,0.0264648
0.0750732,0.0270874
0.0756836,0.0277527
0.0366211,0.027533
0.0177002,0.0275391
-0.0341797,0.0277466
-0.0146484,0.0278931
-0.0378418,0.0281372
-0.0915527,0.0289124
-0.0549316,0.0291321
0.000610352,0.0290283
0.00671387,0.029071
-0.0299072,0.0293274
0.067749,0.0295532
0.0854492,0.0303284
0.0604248,0.03078
-0.057373,0.0313171
0.0585938,0.0318298
-0.0823975,0.0325439
0.0488281,0.0328003
0.0390625,0.0331726
0.045166,0.0335693
0.115967,0.0344177
0.0585938,0.0346924
-0.0195313,0.034613
-0.0665283,0.0350464
0.0714111,0.0354858
-0.0146484,0.0352905
-0.125732,0.0363708
-0.109253,0.0374451
-0.126343,0.0385376
-0.0665283,0.0389038
-0.0604248,0.0393677
-0.0500488,0.0397888
-0.0250244,0.039624
0.0488281,0.0400574
-0.0170898,0.0398193
-0.00488281,0.0395264
-0.00854492,0.0394348
-0.00854492,0.0393372
0.0372314,0.0392395
-0.0396729,0.0393433
-0.00671387,0.0390381
-0.0140381,0.038678
-0.0366211,0.0387207
-0.0457764,0.0383545
-0.0256348,0.0384705
-0.012207,0.0378052
-0.0598145,0.0377625
-0.043335,0.0377197
-0.0177002,0.0376648
0.00305176,0.0372192
0.00366211,0.0366089
-0.00183105,0.0362183
-0.0531006,0.0367371
0.0457764,0.0369568
0.0183105,0.0370911
0.00732422,0.0369629
0.00366211,0.0361145
-0.0469971,0.0356873
-0.000610352,0.0354187
0.0274658,0.0353271
-0.0616455,0.0357727
0.0268555,0.0360291
-0.00427246,0.0357117
-0.101318,0.0365295
0.020752,0.0366333
-0.00854492,0.0365601
-0.0128174,0.0365601
-0.00915527,0.0364624
-0.0494385,0.0368347
-0.0372314,0.0371521
0.00427246,0.0369202
0.0189209,0.0369751
-0.0415039,0.0371338
-0.0189209,0.0370728
-0.0115967,0.0369446
0.00305176,0.0367065
0.00915527,0.0364868
-0.0140381,0.0364319
-0.0244141,0.0364319
-0.0256348,0.0364746
0.0158691,0.036438
-0.0177002,0.0362244
-0.0634766,0.0361938
-0.0866699,0.0367249
-0.045166,0.0371338
-0.0665283,0.0375122
-0.0604248,0.037915
-0.0299072,0.0380737
-0.0341797,0.0383972
0.0415039,0.0387939
-0.0878906,0.0394897
-0.00915527,0.0391113
0.0506592,0.0393982
-0.0213623,0.0391724
-0.0158691,0.0392029
-0.0292969,0.0392761
-0.00976563,0.0390808
-0.0195313,0.0386169
-0.0396729,0.0381714
-0.0250244,0.0376709
-0.0183105,0.0370972
-0.0244141,0.0369751
-0.043335,0.0372314
-0.0231934,0.0371216
-0.0415039,0.0373901
-0.0146484,0.0371582
-0.0592041,0.0368347
-0.00244141,0.0363098
-0.0244141,0.0365479
-0.0292969,0.0367737
-0.0384521,0.0368591
-0.0396729,0.0365784
0.00976563,0.0358215
-0.00854492,0.0353027
-0.0500488,0.0352295
-0.0445557,0.0350891
0.0170898,0.034436
-0.0726318,0.0346741
-0.0268555,0.034552
0.0317383,0.0344177
-0.055542,0.0338135
-0.0610352,0.0338379
-0.0549316,0.0341919
-0.010376,0.0336304
-0.0341797,0.0332581
-0.0323486,0.0334351
-0.0518799,0.0326965
0.012207,0.0317261
-0.0299072,0.0307617
-0.0769043,0.0308655
-0.055542,0.0308167
0.0268555,0.0305847
-0.0250244,0.0305847
-0.0506592,0.030603
-0.0720215,0.0311523
-0.0402832,0.0315063
0.012207,0.031543
-0.0463867,0.0319214
-0.0537109,0.0320862
-0.00488281,0.0317383
-0.0189209,0.0318604
-0.0421143,0.0321411
-0.00549316,0.0318298
-0.0274658,0.0316467
-0.0292969,0.0316833
-0.0604248,0.0321655
-0.0274658,0.031842
-0.0250244,0.0316589
-0.0524902,0.0320068
-0.0518799,0.0324951
-0.0445557,0.0329041
-0.0299072,0.0331848
-0.0317383,0.0329712
-0.0219727,0.0327332
-0.00854492,0.0326355
-0.0231934,0.0327942
-0.0164795,0.0329224
-0.0286865,0.0327393
0.0219727,0.0329529
0.0756836,0.0334351
-0.0445557,0.0332642
-0.0976563,0.0339722
0.0299072,0.0342285
-0.0396729,0.0336121
-0.0268555,0.0336731
-0.0421143,0.0340088
-0.0421143,0.0343018
-0.0982666,0.0351929
0.00976563,0.0347961
-0.0567627,0.0349915
-0.0628662,0.0355774
-0.00671387,0.0354553
0.000610352,0.0350464
-0.0262451,0.0351196
-0.0238037,0.0352417
-0.0195313,0.0354065
-0.00549316,0.0353699
-0.0170898,0.0354004
-0.0323486,0.0354797
-0.00549316,0.0352783
-0.0878906,0.0359985
-0.0579834,0.0364014
-0.0354004,0.0361206
-0.065918,0.0359131
-0.055542,0.0360168
-0.0384521,0.0357361
0.0189209,0.035321
-0.00671387,0.0350891
-0.00732422,0.0348206
-0.0372314,0.0347778
-0.0183105,0.034082
-0.00854492,0.0340759
-0.0567627,0.034137
0.0152588,0.0340759
-0.109863,0.0350159
-0.0482178,0.0352051
0.00244141,0.0351318
-0.043335,0.0353699
-0.00183105,0.0349915
-0.0317383,0.0350586
-0.0415039,0.0352905
-0.0256348,0.0353027
-0.0152588,0.035022
-0.0427246,0.0352173
-0.0689697,0.0354919
-0.0177002,0.0355225
0.0213623,0.035144
-0.0488281,0.0356079
-0.0177002,0.0355408
-0.0262451,0.0355103
0.0012207,0.0351379
0.00183105,0.0347595
-0.0134277,0.0347961
-0.0274658,0.0349854
0.00915527,0.0345764
0.0219727,0.0343506
0.0195313,0.034375
-0.0244141,0.0338928
-0.0964355,0.0345886
0,0.0342712
0.00244141,0.0337402
-0.0372314,0.0335022
-0.0518799,0.0334717
-0.057373,0.0339417
-0.0268555,0.0338684
-0.0500488,0.0340454
-0.0274658,0.0338013
0.00854492,0.0337646
-0.045166,0.0339172
0,0.0331482
-0.0274658,0.0328674
0.0115967,0.0327148
0.0012207,0.0324768
-0.0183105,0.0321533
0.0238037,0.0316711
0.0384521,0.0316528
-0.0744629,0.0322754
-0.00915527,0.0319031
-0.0152588,0.0315186
-0.0524902,0.0319946
-0.0341797,0.0321472
-0.0231934,0.031958
-0.0793457,0.0326965
-0.0384521,0.0328064
-0.0665283,0.0331787
-0.0134277,0.0327087
-0.00427246,0.0324768
-0.0744629,0.0329712
-0.0128174,0.0325745
0,0.0320557
-0.032959,0.0319397
-0.0177002,0.0318176
-0.0402832,0.0319031
-0.0115967,0.0317993
0.0231934,0.0319458
-0.0134277,0.0318481
-0.0390625,0.032074
-0.0299072,0.0320862
-0.0354004,0.0322205
-0.00427246,0.0315063
-0.0183105,0.0312439
-0.0189209,0.0304565
-0.0250244,0.0304077
-0.0335693,0.0303467
-0.0396729,0.0304749
-0.0170898,0.0302246
-0.0183105,0.0299866
-0.065918,0.0296631
-0.045166,0.0300171
0.00488281,0.0294983
-0.0317383,0.029187
-0.0238037,0.0293579
-0.00427246,0.0293945
-0.0195313,0.0293274
0.0219727,0.0293091
0.0134277,0.029248
-0.135498,0.0305481
0,0.0303772
0.0238037,0.0302917
-0.0836182,0.031073
-0.0317383,0.0305115
-0.0250244,0.0301819
0.0140381,0.0299683
-0.00793457,0.0293884
-0.0354004,0.029187
-0.0238037,0.0290405
-0.0335693,0.029187
-0.0238037,0.0293579
0.00305176,0.0293152
-0.0311279,0.0292542
-0.0482178,0.0295532
-0.0372314,0.0298401
0.00427246,0.0293152
0.0323486,0.0294861
0.0177002,0.0285645
-0.0177002,0.0282593
-0.012207,0.0283569
-0.0146484,0.0280701
-0.00366211,0.0280884
-0.0457764,0.0282288
-0.0189209,0.0280029
-0.0317383,0.028064
-0.109253,0.0290039
-0.0195313,0.028772
-0.0140381,0.0282227
-0.0158691,0.0282043
-0.0164795,0.0281555
-0.00976563,0.0277649
-0.0408936,0.0279968
-0.0231934,0.0279663
-0.0146484,0.0281006
-0.0445557,0.0285278
0.00427246,0.0284363
-0.0372314,0.0285339
-0.0372314,0.0288147
-0.0238037,0.028833
-0.00183105,0.028656
-0.0152588,0.0285645
-0.00915527,0.0276917
-0.0231934,0.0279236
-0.00610352,0.0279602
0.0128174,0.0277161
0.0592041,0.0277893
0.0561523,0.0277771
0.00244141,0.027533
-0.00183105,0.0270508
-0.0262451,0.0270386
-0.0421143,0.0273743
-0.045166,0.0273743
-0.0958252,0.0283325
-0.115967,0.0292175
-0.110474,0.0302063
-0.0787354,0.0309814
-0.0683594,0.0314819
-0.0830078,0.032074
0.00366211,0.0317261
-0.057373,0.0315552
-0.0445557,0.0319092
-0.0317383,0.032074
-0.0415039,0.0319641
-0.0415039,0.0320374
-0.022583,0.0320313
0.0244141,0.0314819
0.00488281,0.0311462
0.0360107,0.0308411
0.0286865,0.0309937
0.0152588,0.0311035
0.0378418,0.0307373
0.0726318,0.0313354
0.043335,0.0317688
0.0164795,0.031604
-0.00793457,0.0315063
-0.111084,0.0322144
-0.0689697,0.0327881
-0.0390625,0.0329468
-0.0598145,0.0334106
-0.0994873,0.0340149
-0.0598145,0.034314
-0.088501,0.034845
-0.0610352,0.0354126
-0.0720215,0.0359497
0,0.0357605
-0.0750732,0.036261
-0.107422,0.0369995
-0.0982666,0.0375854
-0.0952148,0.0383667
-0.0878906,0.0390625
-0.0592041,0.0389954
-0.0286865,0.0388306
-0.0427246,0.039209
-0.00183105,0.0389099
0,0.0386719
-0.0720215,0.0393494
-0.0231934,0.039386
-0.0177002,0.0393433
-0.0549316,0.0397583
-0.0616455,0.0390198
-0.0177002,0.0391968
-0.0482178,0.0394409
-0.0390625,0.0389954
-0.00427246,0.0387207
-0.0146484,0.0386169
-0.032959,0.0388062
-0.0305176,0.039032
0.00183105,0.0386963
-0.022583,0.0386841
-0.0146484,0.0384949
-0.0134277,0.0383911
-0.0457764,0.0388184
0.0134277,0.0386414
-0.0427246,0.0385864
-0.0512695,0.0387268
-0.0262451,0.0389465
0.00976563,0.0387207
0.0482178,0.0390259
-0.0732422,0.0395813
-0.116577,0.040625
0.0488281,0.0409668
0.0158691,0.0410889
-0.137939,0.0420105
-0.127563,0.0430969
-0.140991,0.0441895
-0.150146,0.0445984
-0.136719,0.0457703
-0.149536,0.0471252
-0.194092,0.0489075
-0.116577,0.0499084
-0.131836,0.0511292
-0.169067,0.0524109
-0.0634766,0.0528137
-0.0469971,0.0531372
-0.098877,0.0536804
-0.020752,0.0538452
-0.0439453,0.0539124
0.0378418,0.0539185
-0.0384521,0.0540649
-0.0390625,0.0544373
-0.0793457,0.0550781
-0.0604248,0.0555908
-0.0457764,0.0558167
-0.0805664,0.0565613
-0.0506592,0.0569397
-0.0750732,0.0570984
-0.0872803,0.0574097
-0.0848389,0.0582336
0.0604248,0.0588196
0.0762939,0.0593201
0.0286865,0.0591858
-0.112915,0.0598633
-0.0518799,0.0594238
0.0823975,0.0590881
0.133667,0.0593201
-0.0897217,0.0594299
0.0982666,0.059729
0.0872803,0.0597717
0.0891113,0.0606262
-0.00915527,0.060144
-0.113525,0.0608337
-0.0744629,0.061261
-0.231323,0.0631592
-0.298462,0.0657288
-0.189819,0.0674011
-0.231323,0.0694702
-0.178833,0.0712097
-0.249023,0.0733398
-0.0714111,0.0737671
-0.126343,0.0748779
-0.0872803,0.0753723
0.0341797,0.0749878
-0.0244141,0.0747986
-0.197144,0.0766052
-0.151367,0.0780396
-0.0158691,0.0770874
0.139771,0.0777954
0.0311279,0.0777161
-0.0646973,0.0777649
-0.167847,0.0784485
-0.0628662,0.078479
0.0317383,0.0779114
-0.0982666,0.0782837
-0.12207,0.0787842
-0.175171,0.0805359
-0.12085,0.0809937
0.222168,0.0821411
0.192261,0.0830811
0.289917,0.0850281
0.267334,0.0868225
0.0341797,0.0865723
-0.00244141,0.0863098
0.162354,0.0875061
0.0994873,0.0884827
-0.27832,0.0912659
-0.343628,0.0939819
-0.0592041,0.094342
-0.147095,0.095636
0.00915527,0.0951782
-0.00305176,0.0945923
0.205078,0.0964661
0.289307,0.098877
0.10437,0.09953
0.067749,0.100165
0.182495,0.101843
0.0317383,0.101831
0.0299072,0.101825
0.0177002,0.101984
0.0622559,0.10238
0.241699,0.104651
0.0958252,0.105475
-0.0567627,0.105585
0.267334,0.108124
0.454102,0.112238
0.34668,0.115192
0.00183105,0.114948
-0.139771,0.116248
-0.516968,0.120935
-0.103149,0.121234
-0.142212,0.12149
-0.341187,0.124414
-0.412598,0.128381
-0.00732422,0.127075
0.0012207,0.125812
-0.17395,0.126141
0.0994873,0.125635
0.302734,0.127295
0.175781,0.127557
0.0616455,0.126233
0.0640869,0.125708
-0.178223,0.126172
-0.0115967,0.124597
0.0183105,0.124146
-0.228271,0.125958
-0.0518799,0.125488
-0.0762939,0.126044
0.00732422,0.125677
-0.0720215,0.126019
-0.0482178,0.126117
-0.144043,0.127167
-0.0427246,0.126801
0.159302,0.127789
0.00549316,0.127386
-0.00244141,0.126605
0.00793457,0.126178
0.109253,0.12652
0.19165,0.127563
0.13855,0.128101
0.24231,0.129919
-0.0671387,0.129828
-0.0427246,0.129968
-0.0323486,0.129163
0.169067,0.130334
-0.0262451,0.129773
0.0671387,0.129108
0.285034,0.131061
0.311279,0.133191
-0.0170898,0.132489
0.24231,0.134021
-0.0799561,0.134729
-0.236816,0.135962
-0.090332,0.136121
-0.332642,0.137134
-0.440063,0.13855
-0.457153,0.141223
-0.189819,0.140808
0.116577,0.140186
-0.0201416,0.137897
0.057373,0.137756
0.227051,0.138763
-0.0311279,0.138202
-0.117188,0.139032
-0.0646973,0.139435
-0.124512,0.138708
-0.0335693,0.137531
-0.136719,0.138739
-0.0701904,0.138043
-0.0115967,0.137848
0.0158691,0.13736
0.222168,0.137903
0.224609,0.13952
-0.0897217,0.1401
0.0164795,0.139282
0.0445557,0.138507
0.0610352,0.137366
0.119629,0.137354
-0.0250244,0.135382
0.0286865,0.133746
0.0982666,0.13183
0.10437,0.1302
-0.0933838,0.130792
-0.126343,0.132031
-0.0164795,0.130573
-0.117798,0.130756
-0.126343,0.129236
-0.195923,0.127759
-0.220337,0.12937
-0.0585938,0.128485
0.0286865,0.12868
0.128784,0.129938
-0.163574,0.129523
0.123901,0.127869
0.0543213,0.127368
0.100098,0.127692
0.0158691,0.126025
0.130615,0.127014
-0.151367,0.128229
-0.186157,0.129913
0.0482178,0.129773
0.189819,0.129254
0.045166,0.128748
-0.078125,0.128961
-0.0585938,0.126874
0.0115967,0.122449
0.0793457,0.119775
-0.0402832,0.12016
0.00427246,0.118805
-0.0762939,0.114398
-0.0518799,0.113885
-0.0848389,0.113312
-0.00915527,0.109991
-0.0543213,0.106409
-0.0323486,0.106659
-0.0817871,0.107465
-0.0524902,0.10625
-0.065918,0.105914
-0.0408936,0.103296
-0.223999,0.103778
-0.185547,0.105017
0.0366211,0.104742
-0.0970459,0.103931
-0.140991,0.105225
-0.150757,0.106549
0.114746,0.105414
-0.00732422,0.104968
0.0836182,0.105042
0.0946045,0.105914
0.0738525,0.105933
0.159912,0.10705
0.170898,0.107318
0.140381,0.108295
0.0793457,0.107495
0.0506592,0.107947
0.0872803,0.108795
0.0415039,0.109131
0.109253,0.109131
0.0177002,0.107391
-0.341187,0.109418
-0.152588,0.108521
0.0231934,0.108081
-0.0799561,0.108453
-0.0195313,0.108325
-0.0744629,0.107379
-0.0378418,0.107495
0.00427246,0.106866
0.108032,0.105096
-0.0640869,0.102625
-0.10376,0.103491
-0.140991,0.102478
-0.00183105,0.101697
-0.357056,0.102899
-0.266724,0.104663
0.0244141,0.101581
-0.145264,0.0986328
-0.125122,0.0953125
-0.0238037,0.0936523
0.0598145,0.0930847
-0.0537109,0.0934204
0.0610352,0.093457
0.0646973,0.0918335
-0.0524902,0.0920471
0.388184,0.0947571
0.131836,0.0954285
0.0598145,0.0947815
-0.0836182,0.095282
0.10498,0.0949646
-0.0909424,0.0951721
-0.106201,0.0961182
-0.00854492,0.0960449
-0.0518799,0.094342
0.0720215,0.0928162
0.106201,0.092981
0.194092,0.0947571
0.106812,0.0953796
0.0268555,0.0950378
-0.0335693,0.0941772
-0.0292969,0.09422
-0.211182,0.0960449
-0.476685,0.0998291
-0.161743,0.100403
-0.0805664,0.100275
-0.420532,0.103217
-0.294189,0.105994
-0.0982666,0.105798
-0.0683594,0.105219
-0.0897217,0.104156
-0.202026,0.103973
-0.0286865,0.103674
0.0238037,0.103625
-0.214844,0.104486
0.261841,0.105469
0.0756836,0.104987
0.0109863,0.104553
0.213013,0.105682
0.0384521,0.105908
-0.0445557,0.105048
-0.03479,0.103882
-0.0427246,0.102448
-0.0982666,0.102948
-0.159302,0.102643
0.446777,0.106659
-0.255127,0.108429
-0.0152588,0.107996
0.375977,0.111639
0.100098,0.111847
0.294189,0.114386
0.402832,0.118372
0.350342,0.121112
0.238037,0.122974
0.0708008,0.122833
-0.0592041,0.123334
0.43396,0.12713
-0.253906,0.129346
-0.681763,0.135345
-0.288086,0.137701
-0.333862,0.140381
-0.368042,0.143652
-0.287476,0.144287
-0.53833,0.147815
-0.0787354,0.148236
0.0817871,0.148083
-0.196533,0.148639
-0.0341797,0.147473
0.0213623,0.146539
-0.157471,0.148041
-0.10437,0.148248
-0.122681,0.148529
0.0628662,0.148419
-0.236206,0.149182
0.349121,0.150964
0.591431,0.155475
0.3479,0.15816
0.0408936,0.158063
0.0415039,0.157605
0.424194,0.161432
0.292358,0.163263
-0.0250244,0.163336
-0.12207,0.161145
-0.244141,0.162061
-0.32959,0.165125
-0.0421143,0.164746
0.528564,0.169836
0.505981,0.174152
0.483398,0.178607
0.116577,0.17973
0.15686,0.180219
0.349121,0.183069
-0.301514,0.185046
-0.469971,0.188336
0.0274658,0.188593
-0.728149,0.192303
-0.604248,0.195679
-0.420532,0.19964
-0.581665,0.204004
-0.137329,0.204126
0.0860596,0.204749
0.057373,0.204724
-0.128174,0.205469
-0.125732,0.206116
-0.248413,0.207953
0.169678,0.209125
0.344238,0.208685
0.140991,0.208777
0.012207,0.208301
0.792847,0.215393
0.203247,0.216376
-0.524902,0.220715
0.123291,0.220886
0.181885,0.22262
-0.0415039,0.222516
-0.0683594,0.222479
0.0366211,0.221783
0.372925,0.223572
0.254517,0.225049
-0.372925,0.22851
0.469971,0.232874
0.283813,0.235419
0.0415039,0.233722
-0.459595,0.233551
-0.529175,0.237225
-0.472412,0.241144
-0.287476,0.239813
0.324707,0.240118
0.0311279,0.239447
-0.334473,0.242108
-0.239258,0.243604
0.27832,0.244366
0.0683594,0.244763
0.067749,0.245203
-0.12207,0.244275
-0.15686,0.243225
-0.202026,0.244489
0.163574,0.246014
0.17334,0.245618
0.142212,0.246655
0.0256348,0.246466
0.142212,0.24754
-0.162964,0.248743
-0.335083,0.251111
-0.195923,0.251477
-0.343018,0.250439
-0.231934,0.250208
-0.0891113,0.250946
-0.0848389,0.248035
0.0665283,0.247699
0.493774,0.249695
0.22644,0.247931
0.267944,0.247107
0.19104,0.246637
0.0567627,0.246497
0.166016,0.247565
0.291748,0.246143
0.067749,0.244281
-0.282593,0.240289
-0.227661,0.239685
-0.3479,0.239825
-0.200806,0.238153
-0.0488281,0.235767
-0.396118,0.234344
-0.280762,0.236365
-0.217896,0.237726
-0.480957,0.24057
-0.090332,0.241132
0.145874,0.242377
0.0567627,0.24137
0.03479,0.240674
-0.0518799,0.239966
0.29541,0.242291
0.088501,0.240814
0.330811,0.240631
0.424194,0.238959
-0.0213623,0.235693
-0.166016,0.236945
-0.159912,0.238129
0.237427,0.236261
-0.10437,0.234381
-0.302734,0.237158
-0.0811768,0.236749
-0.161743,0.235925
-0.0921631,0.233551
0.516968,0.2383
0.401611,0.23703
-0.106201,0.233032
-0.482178,0.23302
-0.204468,0.233899
0.130615,0.233636
-0.449829,0.234644
0.0543213,0.232172
0.163574,0.229108
0.510864,0.233942
0.545044,0.232111
-0.218506,0.228253
-0.234375,0.226392
0.308228,0.223657
0.0256348,0.22254
-0.6604,0.228284
-0.78125,0.235522
-0.709229,0.241333
-0.452271,0.244598
-0.147095,0.243585
-0.161133,0.2435
0.0183105,0.24024
-0.00244141,0.238855
0.0634766,0.239368
0.212402,0.233563
0.213623,0.233667
0.101318,0.229431
0.24231,0.230621
0.197754,0.23078
0.301514,0.23338
0.0311279,0.233008
-0.0909424,0.233551
-0.0469971,0.230292
-0.137939,0.229126
-0.349731,0.228894
-0.460815,0.228802
-0.0848389,0.226813
-0.220337,0.228601
0.0531006,0.224536
0.105591,0.2203
0.0341797,0.215918
0.123901,0.214282
0.111694,0.212152
0.187988,0.213721
0.135498,0.211731
0.251465,0.211853
0.388184,0.212952
0.500488,0.217273
-0.0598145,0.217194
-0.0665283,0.216638
-0.169678,0.216766
-0.155029,0.216296
-0.302734,0.217688
-0.584717,0.221802
-0.571289,0.226093
-0.667114,0.232507
-0.356445,0.23465
-0.205688,0.235077
-0.0726318,0.232452
0.228271,0.232776
0.0756836,0.230103
0.0592041,0.228375
0.182495,0.229309
0.0518799,0.228979
0.0488281,0.228802
0.309448,0.226959
0.254517,0.22724
0.169067,0.226251
-0.0817871,0.225159
-0.0195313,0.224786
0.067749,0.223804
0.0170898,0.221057
0.0268555,0.220648
-0.0402832,0.218225
-0.043335,0.216382
-0.281372,0.215717
0.00732422,0.213782
0.181274,0.215106
-0.0549316,0.211694
-0.248413,0.211371
0.0109863,0.209302
-0.0805664,0.205298
-0.0805664,0.2052
-0.0939941,0.204681
-0.100098,0.205115
-0.128784,0.206055
-0.00366211,0.205573
-0.167236,0.204291
-0.101929,0.204425
-0.152588,0.202643
-0.132446,0.199725
-0.180664,0.201318
0.00793457,0.199738
-0.010376,0.198242
0.0701904,0.19657
0.167236,0.197198
0.0915527,0.195087
-0.0866699,0.195142
-0.15564,0.195081
-0.000610352,0.194165
-0.0653076,0.189648
-0.251465,0.188147
-0.299072,0.190076
-0.0469971,0.185724
0.201416,0.185693
0.666504,0.191052
0.0164795,0.186719
0.490112,0.191077
0.338135,0.192822
-0.184326,0.189557
-0.117188,0.185278
-0.0823975,0.183917
-0.0891113,0.182465
-0.144043,0.180823
-0.441895,0.184985
-0.265503,0.181036
-0.339355,0.176617
-0.188599,0.171411
-0.0219727,0.167108
-0.134888,0.166986
-0.344238,0.168817
-0.362549,0.17226
-0.315552,0.175391
-0.223999,0.176996
0.229492,0.177167
0.108032,0.176111
-0.0805664,0.175903
0.0183105,0.173663
0.0537109,0.172223
0.139771,0.170605
-0.0445557,0.17074
0.0689697,0.17052
-0.150757,0.171558
0.170288,0.171881
0.0732422,0.169116
0.125732,0.165765
0.413818,0.169055
-0.192871,0.168781
-0.222168,0.170471
-0.0195313,0.169611
-0.0921631,0.17019
-0.516968,0.174121
0.36438,0.176648
0.560303,0.180371
0.609741,0.185114
0.462036,0.187219
-0.192261,0.18526
-0.344849,0.183704
0.528564,0.188391
0.020752,0.187933
-0.662842,0.192865
-0.959473,0.200909
-0.637817,0.20426
-0.592651,0.20434
-0.0891113,0.199518
-0.0506592,0.193353
-0.12146,0.191003
-0.0964355,0.189911
-0.115356,0.190338
0.0671387,0.188727
-0.13855,0.189355
-0.0134277,0.188898
-0.29541,0.190027
-0.222778,0.191736
0.195923,0.193207
0.288696,0.192999
0.193481,0.192389
-0.142212,0.19212
0.169067,0.192993
0.286255,0.19566
0.0921631,0.195905
-0.159302,0.197327
0.634766,0.203406
-0.0372314,0.203375
-0.20813,0.205023
0.787964,0.210089
0.0238037,0.210254
-0.595093,0.214392
-0.0714111,0.214557
0.238647,0.214459
-0.200195,0.216351
0.317383,0.218719
-0.176392,0.219678
-0.285645,0.221594
0.119629,0.22179
-0.169678,0.222198
-0.0445557,0.222607
0.418091,0.225116
0.297241,0.227069
0.466919,0.230212
0.853271,0.237421
-0.131226,0.236926
-0.0714111,0.237561
-0.0311279,0.237769
-0.105591,0.238123
-0.358276,0.240033
-0.750122,0.246619
-0.983887,0.255591
-0.658569,0.26062
-0.575562,0.26637
-0.245972,0.268176
-0.0427246,0.266089
0.0115967,0.263214
-0.00183105,0.262762
0.114746,0.261896
-0.0732422,0.255963
-0.236206,0.25816
0.380859,0.257068
0.166016,0.255347
0.179443,0.255298
0.355835,0.257684
-0.0579834,0.25744
0.0634766,0.257184
0.281372,0.258557
-0.0384521,0.254523
-0.181274,0.25368
-0.274048,0.253027
-0.360718,0.254749
0.536499,0.259894
0.24292,0.260974
0.142212,0.258954
0.458984,0.259918
0.174561,0.258508
-0.045166,0.25672
-0.0311279,0.254736
-0.220337,0.255859
-0.446167,0.259515
-0.564575,0.264978
-0.453491,0.268976
-0.372314,0.271301
-0.187988,0.272736
0.0128174,0.272174
-0.065918,0.271326
0.455933,0.274182
0.317993,0.27663
-0.237427,0.277747
-0.0488281,0.274097
0.0219727,0.272388
-0.200195,0.272168
-0.469971,0.276672
-0.00793457,0.27583
-0.153198,0.272192
-0.425415,0.272803
-0.109253,0.268292
0.15564,0.263751
0.219727,0.261328
0.184326,0.261249
0.185547,0.259656
-0.012207,0.254492
0.0646973,0.254932
0.216064,0.250464
0.234985,0.243219
0.269165,0.239532
-0.0012207,0.233618
0.00366211,0.232764
-0.319824,0.235455
0.0994873,0.235236
0.0610352,0.234882
-0.276489,0.236493
-0.238037,0.238202
0.441895,0.241235
-0.032959,0.241431
-0.307007,0.241547
-0.0714111,0.240033
0.296021,0.241034
0.0921631,0.239069
-0.137939,0.238513
-0.256348,0.239655
-0.175781,0.239722
0.218506,0.239044
-0.0134277,0.238257
0.240479,0.239069
0.0897217,0.233618
0.108643,0.234332
-0.045166,0.232703
-0.36499,0.228473
-0.0732422,0.228967
-0.255127,0.225568
-0.393677,0.22879
-0.293579,0.22934
-0.275879,0.230096
-0.160522,0.228528
-0.0787354,0.227551
0.0384521,0.225079
0.0152588,0.224036
0.167236,0.224011
0.192261,0.225488
0.300903,0.224316
0.249023,0.223834
0.217896,0.221344
0.183716,0.214648
0.0982666,0.214319
0.10437,0.214648
0.0341797,0.214679
0.112915,0.214752
-0.000610352,0.211176
-0.136719,0.205042
-0.426025,0.199463
0.219116,0.195068
-0.171509,0.191028
-0.189209,0.19046
-0.261841,0.192651
-0.274658,0.195282
-0.10437,0.196307
-0.117188,0.196332
-0.0921631,0.196521
-0.00976563,0.194257
-0.045166,0.1909
0.0561523,0.189801
0.107422,0.189081
0.0549316,0.186072
-0.0616455,0.186108
-0.256958,0.188043
-0.223999,0.187469
-0.123901,0.188324
-0.0799561,0.187311
-0.0378418,0.184949
0.00366211,0.181378
0.0183105,0.176196
0.0506592,0.174274
0.192871,0.17478
-0.0219727,0.17041
-0.0390625,0.169055
0.0915527,0.169519
-0.00671387,0.169275
-0.272217,0.169794
0.415039,0.169482
-0.0317383,0.164154
0.288086,0.1625
0.163574,0.160413
-0.181885,0.160352
0.0134277,0.160358
0.296021,0.162659
0.0183105,0.158282
-0.147705,0.15658
-0.24292,0.156635
-0.152588,0.157672
-0.175171,0.159204
-0.0567627,0.15777
0.0494385,0.153564
-0.0616455,0.154102
-0.0939941,0.15351
-0.140381,0.150659
-0.0994873,0.150562
-0.00976563,0.149103
0.0909424,0.147815
0.00610352,0.146033
-0.0817871,0.144995
-0.109253,0.145966
-0.0878906,0.146198
-0.109863,0.145135
-0.144043,0.144226
-0.17334,0.143268
-0.239868,0.145654
-0.192871,0.147546
-0.0396729,0.144745
0.010376,0.143854
-0.0311279,0.143555
0.00671387,0.140857
-0.0799561,0.139276
0.31311,0.137988
0.0354004,0.138013
-0.119629,0.136139
-0.155029,0.136975
-0.158691,0.135602
-0.067749,0.135358
-0.185547,0.135834
-0.244751,0.135718
-0.209961,0.13606
-0.123901,0.135114
-0.136108,0.13634
-0.0408936,0.134344
-0.0415039,0.133862
-0.0323486,0.133099
-0.0177002,0.132825
-0.0219727,0.129395
0.0445557,0.129108
0.144043,0.127997
0.010376,0.124164
-0.00305176,0.121259
0.214233,0.120642
0.0372314,0.119409
-0.24231,0.121045
-0.165405,0.122314
-0.142822,0.12359
-0.198364,0.123901
-0.244751,0.124426
-0.22522,0.123669
-0.169067,0.12287
-0.10376,0.121729
-0.137939,0.121271
-0.0811768,0.1211
-0.00549316,0.120111
-0.0628662,0.120398
-0.159912,0.120868
-0.102539,0.121887
-0.0872803,0.121393
-0.045166,0.117584
-0.00549316,0.115448
-0.0140381,0.113873
-0.0262451,0.112244
0.0524902,0.11015
0.0756836,0.10816
0.0445557,0.107562
0.0317383,0.106708
0.129395,0.10708
0.22583,0.109241
0.272217,0.111511
0.228271,0.113232
0.0286865,0.112445
-0.090332,0.112799
0.00915527,0.112274
-0.0689697,0.110394
-0.189209,0.110046
-0.385132,0.112659
-0.368042,0.11554
-0.38208,0.118982
-0.310669,0.122052
-0.248413,0.124353
-0.217285,0.126019
-0.285645,0.126947
-0.20813,0.128809
0.0860596,0.129279
-0.272217,0.131085
-0.105591,0.132074
-0.108643,0.130438
-0.0531006,0.126819
-0.0201416,0.126703
-0.0921631,0.124744
-0.136719,0.124475
-0.115356,0.12381
-0.0854492,0.12453
-0.055542,0.122125
-0.0592041,0.122534
-0.0354004,0.121411
-0.020752,0.119189
-0.0299072,0.117963
-0.00427246,0.116254
0.0213623,0.1159
-0.0543213,0.115948
-0.0585938,0.115918
0.0823975,0.115802
-0.00671387,0.114465
-0.0689697,0.11416
-0.101318,0.115076
0.101318,0.115179
0.0402832,0.115521
0.0311279,0.115015
-0.0964355,0.114886
0.0915527,0.114923
-0.0317383,0.114142
-0.0360107,0.113062
-0.105591,0.112384
-0.0201416,0.110187
-0.065918,0.108917
-0.119629,0.109717
-0.088501,0.110498
-0.0518799,0.110706
-0.00915527,0.11073
-0.13855,0.111316
-0.0811768,0.108997
0.0610352,0.109253
-0.0592041,0.108649
-0.0817871,0.107916
-0.0421143,0.10675
-0.00610352,0.106134
0.0518799,0.104797
-0.0622559,0.102972
-0.0500488,0.101373
0.0897217,0.101031
0.111694,0.100787
0.13916,0.10177
0.0518799,0.101874
0.090332,0.102454
0.247803,0.104755
0.108643,0.105621
0.098877,0.106165
0.00244141,0.104749
0.00549316,0.1047
0.0292969,0.104962
0.0476074,0.103296
-0.078125,0.103705
-0.101318,0.102295
-0.0878906,0.10152
-0.00244141,0.100116
0.0714111,0.0988464
-0.0140381,0.0965393
-0.0280762,0.0945679
-0.0756836,0.093634
-0.0506592,0.093103
-0.0170898,0.0918945
-0.0396729,0.0914795
-0.0396729,0.0918213
-0.010376,0.0912964
-0.0531006,0.0902283
-0.0305176,0.0895081
0.0189209,0.0888245
-0.00427246,0.0884155
0.0372314,0.0887329
0.0701904,0.0892944
0.0189209,0.0892212
0.132446,0.0900208
0.0512695,0.0897766
0.0317383,0.0896484
0.0646973,0.089978
0.0964355,0.0896484
-0.0177002,0.0875671
-0.0787354,0.0856323
-0.0311279,0.0836609
-0.0152588,0.0835266
-0.0634766,0.0832581
0.0189209,0.0833557
-0.043335,0.0830994
-0.0201416,0.0814087
0.00732422,0.0776306
0.012207,0.0740723
0.0189209,0.0704407
0.0726318,0.0680603
0.0183105,0.0657593
0.0390625,0.0639771
0.0305176,0.0614258
-0.0146484,0.059491
0.0354004,0.0589844
0.043335,0.0566956
0.0866699,0.0565063
0.0561523,0.0559814
0.0183105,0.0556335
0.00305176,0.0554626
-0.0360107,0.0549011
0.0134277,0.0536682
-0.0280762,0.0527954
-0.0317383,0.0522583
-0.0335693,0.0520386
-0.0366211,0.0518127
-0.012207,0.0515808
0.0189209,0.0515625
0.0805664,0.0520691
0.0805664,0.052832
0.0976563,0.053595
0.0720215,0.053772
0.020752,0.0533936
0.0549316,0.0531189
0.0646973,0.0536987
-0.0244141,0.0532532
-0.012207,0.0523621
0.0598145,0.051947
0.0268555,0.0518127
0.012207,0.0516235
0.0299072,0.0509583
0.0976563,0.0510193
0.0671387,0.0513733
0.0653076,0.0516663
0.0823975,0.0514343
-0.00671387,0.0513
-0.0915527,0.0515564
-0.0378418,0.0507385
0.0305176,0.0501587
-0.0628662,0.0502686
-0.0732422,0.0509094
-0.0268555,0.0497925
-0.0109863,0.0490906
0.0598145,0.0490784
0.0213623,0.0487
0.0524902,0.048407
0.0286865,0.0482727
0.0323486,0.0485352
0.045166,0.048468
0.0390625,0.0482361
0.00305176,0.0477661
0.0244141,0.047113
0.010376,0.0460999
0.00610352,0.0447693
0.0238037,0.0444885
0.0445557,0.0440308
0.0787354,0.0423401
-0.0140381,0.041394
0.0201416,0.0406067
0.0354004,0.0409363
0.0286865,0.0411682
0.0177002,0.0410522
0.0213623,0.0407898
0.0714111,0.0407227
0.0512695,0.0402222
0.0616455,0.0399597
0.0891113,0.0408264
0.00610352,0.0401733
-0.0134277,0.0401672
0.0256348,0.0401428
-0.00793457,0.0394653
-0.00854492,0.0390442
-0.0494385,0.0393677
-0.0860596,0.0398315
-0.00854492,0.0395203
0.0750732,0.0401672
0.135498,0.0409912
0.112915,0.0418152
-0.0628662,0.0422546
-0.0463867,0.0426758
0.0891113,0.0431946
0.0579834,0.0430725
-0.0457764,0.0433411
-0.103149,0.0430481
-0.0317383,0.0428528
0.0482178,0.0430176
0.183716,0.0442078
0.172729,0.0449707
0.185547,0.0466492
0.114136,0.0470032
0.0372314,0.0470642
0.0549316,0.0474609
0.0341797,0.047168
-0.125732,0.0482361
-0.141602,0.0492187
-0.176392,0.0507813
-0.196533,0.0526733
-0.0897217,0.0534485
-0.090332,0.0541626
-0.0817871,0.0542542
-0.0146484,0.0542175
-0.043335,0.0542603
0.120239,0.0551575
0.174561,0.0567566
0.126953,0.0576721
-0.00427246,0.0572815
0.0653076,0.0570679
0.0292969,0.0567993
-0.0109863,0.0567261
-0.020752,0.0569031
-0.0476074,0.057019
-0.0689697,0.0575745
-0.153198,0.0588257
-0.12207,0.059729
-0.00305176,0.0594238
0.0280762,0.0593384
-0.00976563,0.059314
-0.0262451,0.0593872
0.0195313,0.0587769
0.00183105,0.0579895
-0.0250244,0.0572632
-0.0311279,0.0568542
0.0622559,0.0572693
-0.0219727,0.0569397
0.0280762,0.0565735
-0.0500488,0.0568298
0.0616455,0.0573242
0.0274658,0.0570007
0.0506592,0.0572388
-0.0128174,0.0572449
-0.0549316,0.0574951
0.0378418,0.056897
0.0543213,0.0567688
0.00366211,0.0561523
-0.0299072,0.0556274
-0.03479,0.0559082
-0.0421143,0.0554138
-0.0146484,0.0551819
0.00366211,0.0549133
-0.0518799,0.0548035
-0.0158691,0.0542297
-0.0201416,0.0541626
-0.012207,0.0541748
-0.0335693,0.0539124
0.0335693,0.0540344
0.0213623,0.0537231
-0.0476074,0.0539124
-0.00610352,0.0536499
-0.0115967,0.0533142
0.0390625,0.0533142
-0.045166,0.0537354
-0.055542,0.0540466
0.022583,0.0541687
-0.0262451,0.0543701
-0.0158691,0.0542908
0.0177002,0.0540222
-0.0195313,0.0534302
0.0341797,0.0536316
-0.0378418,0.0538086
0.0292969,0.0537476
-0.0146484,0.0536072
-0.0469971,0.0539001
-0.012207,0.0538086
0.0500488,0.053595
-0.0213623,0.0532959
0.0177002,0.0528564
0.0183105,0.0521484
-0.0231934,0.0523193
0.0518799,0.0527039
0.0219727,0.0526672
-0.0109863,0.0526978
-0.0445557,0.0530579
-0.0714111,0.0532776
-0.0500488,0.0529175
-0.0317383,0.0531494
-0.00549316,0.0524536
-0.00427246,0.0511414
0.0524902,0.0505371
0.125122,0.0511597
-0.0146484,0.0508423
0.0695801,0.050647
0.0115967,0.0501831
-0.0286865,0.0500122
-0.0213623,0.0491943
-0.0518799,0.0493958
-0.0549316,0.0494629
-0.0683594,0.0483093
-0.0476074,0.0470581
-0.0695801,0.0458984
-0.0189209,0.0449463
0.0634766,0.0452087
-0.0238037,0.0448975
-0.03479,0.0449036
-0.0219727,0.043866
-0.0317383,0.0427673
-0.0524902,0.0415283
-0.0219727,0.0397827
-0.0378418,0.0392639
-0.0183105,0.0385437
-0.03479,0.0380737
-0.0213623,0.0381409
-0.00854492,0.037793
-0.0311279,0.0369019
-0.0140381,0.0352966
0.0292969,0.0343201
0.0341797,0.0346191
0.0170898,0.034137
0.00732422,0.0339172
0.00854492,0.0338928
-0.0457764,0.0341431
0.0292969,0.03396
-0.0189209,0.0334595
-0.0396729,0.0323242
-0.057373,0.0316772
-0.00305176,0.0316772
-0.0213623,0.0316101
0.0292969,0.0318054
-0.0518799,0.0320618
-0.00915527,0.031958
-0.00854492,0.0320251
0.0378418,0.0321533
-0.0854492,0.0326965
0.0109863,0.0321838
0.0390625,0.0323547
0.0244141,0.0323181
-0.00183105,0.0318359
0.03479,0.0315674
-0.0134277,0.031427
-0.0299072,0.0312195
-0.0616455,0.0317078
-0.0415039,0.0315735
-0.0744629,0.0319397
-0.0610352,0.0320068
-0.0750732,0.0327209
-0.0140381,0.0325623
-0.0653076,0.0328674
-0.0189209,0.0326355
-0.0152588,0.0326416
-0.00793457,0.0326843
-0.0598145,0.0327637
-0.0738525,0.0333435
-0.0183105,0.0333252
-0.057373,0.0337769
-0.0427246,0.0338684
-0.0286865,0.0338196
-0.0274658,0.0338806
0.00366211,0.0334412
-0.0109863,0.03349
-0.0244141,0.0336182
0.0152588,0.0333801
0.0262451,0.0331909
-0.0262451,0.0328979
-0.0494385,0.0331665
-0.010376,0.0330078
-0.0268555,0.0331177
0.045166,0.0333923
-0.045166,0.0336487
-0.00610352,0.0333679
-0.0372314,0.0333618
-0.000610352,0.033075
0.0262451,0.0331909
0.00732422,0.0327942
-0.00427246,0.0327148
-0.0152588,0.0323669
0.00854492,0.0322388
-0.0158691,0.0322205
0.0524902,0.0325623
-0.0683594,0.0330139
-0.0268555,0.0327637
0.0195313,0.0327393
-0.0665283,0.0332947
0.0134277,0.0329834
-0.0292969,0.0325623
-0.0463867,0.0325256
0.0189209,0.0323975
-0.00732422,0.0324158
-0.0549316,0.0329224
-0.0170898,0.0325684
-0.0231934,0.0315491
-0.0201416,0.031604
-0.00549316,0.0309631
-0.0653076,0.0315002
-0.0476074,0.0316895
-0.0128174,0.031604
0.00976563,0.0311829
0.0140381,0.0307739
-0.00854492,0.0301758
-0.022583,0.0299255
0.0335693,0.0295654
-0.0115967,0.0294922
0.00671387,0.0289246
0.00305176,0.028717
0.0146484,0.0285156
-0.0335693,0.0286316
-0.0390625,0.0287048
-0.0366211,0.0285461
0.00854492,0.0284119
-0.0482178,0.0285156
-0.0366211,0.0286987
-0.00915527,0.0284424
0.057373,0.0288025
0.0817871,0.0295349
0.0512695,0.0297363
0.0683594,0.0302795
0.131226,0.0312988
0.0939941,0.031897
-0.10437,0.0327698
-0.0292969,0.0329895
-0.0146484,0.0330505
-0.0341797,0.0329346
-0.137939,0.034021
-0.162964,0.0354614
-0.0842285,0.035907
-0.0158691,0.0354919
0.0500488,0.0359619
0.0323486,0.0360718
-0.00183105,0.0357971
-0.132446,0.0366028
-0.0219727,0.036731
-0.010376,0.0367493
-0.0994873,0.0373657
-0.0927734,0.037439
-0.116577,0.0384949
-0.111084,0.0392151
-0.0335693,0.0393066
0.0268555,0.0395569
-0.0823975,0.040033
-0.0671387,0.0405701
-0.0012207,0.0402832
-0.00793457,0.0397461
-0.0598145,0.0399292
-0.0689697,0.0398743
-0.0238037,0.039502
-0.0372314,0.0391235
-0.0598145,0.0395813
-0.0872803,0.039801
0.0390625,0.0400024
0.0128174,0.039978
-0.0439453,0.0403381
-0.0170898,0.0399109
-0.00427246,0.0392151
-0.0250244,0.0392822
-0.0341797,0.0390503
0.0415039,0.0390381
0.0518799,0.03927
0.00915527,0.0390869
-0.0738525,0.0397888
-0.00305176,0.0397095
0.0549316,0.0400146
-0.090332,0.0407654
-0.0714111,0.041217
-0.0476074,0.0414307
-0.0732422,0.0416687
-0.0543213,0.0421082
-0.0665283,0.0425049
-0.0842285,0.0428955
-0.0823975,0.0432678
-0.0323486,0.0435303
-0.0476074,0.043634
-0.0384521,0.0440125
-0.0537109,0.0442871
-0.0708008,0.0449219
-0.0354004,0.0452332
-0.00915527,0.0451721
-0.0372314,0.045459
-0.0231934,0.0455322
0,0.0450073
-0.0231934,0.0445557
-0.0128174,0.0444153
0.00732422,0.0442932
-0.0140381,0.0437683
-0.0701904,0.0443359
-0.0762939,0.0448059
-0.00671387,0.0444092
-0.00915527,0.0443115
-0.0256348,0.0444946
-0.0927734,0.044873
-0.067749,0.0453796
0.0317383,0.0454651
-0.0366211,0.0456299
-0.0531006,0.046106
0.010376,0.0455566
-0.0549316,0.0456299
-0.0421143,0.0459229
-0.0488281,0.0463135
0.022583,0.0463989
-0.0311279,0.0466248
-0.0183105,0.046582
-0.0323486,0.0465698
-0.0378418,0.0468323
-0.0469971,0.0472351
-0.0341797,0.0475464
-0.0592041,0.0479919
-0.0823975,0.0484802
-0.0744629,0.0488342
-0.0701904,0.0491699
-0.0482178,0.0495667
-0.0268555,0.049353
-0.00488281,0.0490356
-0.032959,0.0492737
-0.0335693,0.0490356
0.0183105,0.0484009
-0.0189209,0.0480774
-0.0256348,0.0476501
-0.0469971,0.0468079
-0.0134277,0.0460022
-0.0402832,0.0453613
0.0189209,0.0452576
-0.0402832,0.0455139
-0.0311279,0.0454834
-0.0463867,0.0445679
-0.0164795,0.043103
0.00488281,0.0423096
-0.0616455,0.0427673
-0.0262451,0.0425293
-0.020752,0.0424133
-0.0531006,0.042926
-0.0274658,0.0418762
0.0537109,0.0421936
-0.000610352,0.0420959
0.055542,0.0416565
-0.0250244,0.040979
-0.0274658,0.0400879
0.0164795,0.0391418
-0.0537109,0.0393433
-0.00732422,0.0391479
-0.0732422,0.0390564
-0.0787354,0.0391724
-0.0738525,0.0398987
-0.0311279,0.0401306
0.00488281,0.0395813
-0.0115967,0.0390076
-0.0921631,0.0396912
-0.00854492,0.0394043
-0.0219727,0.0390259
-0.0360107,0.0385132
-0.0634766,0.0387573
-0.0592041,0.0392212
-0.0823975,0.0396057
-0.055542,0.0399902
-0.0469971,0.0404175
-0.0262451,0.0404297
-0.0360107,0.040448
-0.0262451,0.0402954
0.010376,0.0398804
-0.022583,0.0400146
-0.0183105,0.0394592
0.00427246,0.0394714
-0.00915527,0.0390137
0.022583,0.0383362
-0.0469971,0.038092
-0.0146484,0.0377625
-0.000610352,0.0370361
-0.00427246,0.0365356
-0.0177002,0.0360474
-0.0280762,0.0354858
-0.0512695,0.0351746
-0.0164795,0.0350159
0.010376,0.0346436
-0.111084,0.0353699
-0.0628662,0.0354614
-0.0268555,0.035022
-0.0262451,0.0349304
-0.0354004,0.0351929
-0.0250244,0.0350708
0.00610352,0.0348999
0.0238037,0.0351379
-0.112305,0.0360291
0.0231934,0.0361328
0.00305176,0.0360901
-0.0567627,0.0365173
-0.0549316,0.0363647
-0.0689697,0.0362915
-0.0128174,0.0363525
-0.0305176,0.0365662
-0.0305176,0.036615
0.0323486,0.0360107
0.022583,0.0355591
0.0128174,0.0353699
-0.0610352,0.035614
0.0164795,0.0352478
-0.0427246,0.0355713
-0.0366211,0.0353882
-0.0262451,0.0352295
-0.0830078,0.0355713
-0.022583,0.0355713
0.022583,0.0354858
0.010376,0.0354065
-0.057373,0.0356567
0.0323486,0.0356018
-0.0323486,0.0354553
-0.0274658,0.0353882
-0.0366211,0.0351624
-0.0476074,0.0348145
0.0231934,0.0343018
-0.067749,0.0342773
-0.0109863,0.033905
-0.0860596,0.0344971
0.0402832,0.0348511
0.00488281,0.0345703
-0.0427246,0.0346619
-0.0421143,0.0348999
-0.0585938,0.0352966
-0.0524902,0.0355652
-0.0708008,0.0358032
-0.0262451,0.0359314
0.0360107,0.0358887
-0.057373,0.0362732
-0.0378418,0.0362488
0.010376,0.0360413
0.0256348,0.0358337
0.0164795,0.0358337
-0.0390625,0.0361755
0.0268555,0.0358276
-0.00793457,0.0356445
-0.0238037,0.035675
-0.0164795,0.0353088
0.0012207,0.0350464
0.0262451,0.0347717
-0.0531006,0.0352966
-0.00488281,0.03479
-0.0476074,0.0350159
0.0579834,0.035321
-0.0115967,0.0352722
-0.0689697,0.0354248
-0.0177002,0.0355286
0.0195313,0.0349915
-0.00305176,0.0342346
-0.0305176,0.0338013
-0.0268555,0.0337585
-0.0305176,0.0340149
0.0201416,0.0341003
0.0341797,0.0335205
-0.0195313,0.0336304
-0.0231934,0.0336426
0.0292969,0.0335754
0.0244141,0.0331848
-0.0140381,0.0327332
-0.0140381,0.0320496
-0.00366211,0.0315308
0.0610352,0.0316711
-0.0195313,0.031604
-0.0360107,0.031604
0.00488281,0.0313904
0.0860596,0.0321472
-0.0152588,0.032074
-0.0250244,0.0321411
0.0244141,0.0323425
-0.0378418,0.0326294
-0.0384521,0.0327881
-0.00854492,0.0324036
-0.0378418,0.0326355
-0.0256348,0.0328857
-0.0531006,0.033374
-0.0646973,0.033844
-0.0262451,0.0338257
-0.0195313,0.0335083
0.00854492,0.033429
0.0152588,0.0334778
-0.0341797,0.0327087
-0.0183105,0.0322632
-0.010376,0.0320984
0,0.0318359
-0.0665283,0.0321472
0.0323486,0.0322205
0.0378418,0.0325378
-0.0183105,0.0324829
0.0390625,0.0317505
0.012207,0.0316406
-0.000610352,0.0316162
0.0219727,0.0312683
0.0317383,0.0310364
0.00976563,0.0304443
-0.00488281,0.030365
-0.0579834,0.0306396
0.0299072,0.0306335
0.055542,0.0308655
0.0317383,0.030957
-0.00854492,0.0309143
-0.00976563,0.0304016
0.00488281,0.0302856
0.000610352,0.0298645
-0.0244141,0.0297424
-0.0335693,0.0298157
-0.0714111,0.0296997
-0.0366211,0.0298401
-0.0500488,0.0301147
-0.0238037,0.030249
-0.00305176,0.0297058
-0.0341797,0.0297241
0.00732422,0.0294739
-0.00671387,0.0292664
-0.00915527,0.0289917
0.0134277,0.0286499
0.00732422,0.0284912
-0.0012207,0.0278259
0.00793457,0.0277954
-0.0012207,0.026947
-0.00610352,0.0266052
0.0170898,0.0267273
0.0585938,0.026886
-0.0231934,0.0266968
-0.0128174,0.026239
0.0335693,0.0260498
-0.0305176,0.025647
0.0115967,0.0255005
-0.020752,0.0253479
-0.0201416,0.0249756
-0.0408936,0.0250061
-0.0256348,0.0251587
-0.0189209,0.0250916
0.000610352,0.0249329
-0.0164795,0.024707
0.00732422,0.0245117
0.0012207,0.0244446
0.000610352,0.0242126
0.00671387,0.024115
0.0189209,0.024292
-0.00610352,0.0240906
0.012207,0.0236816
-0.00732422,0.0237061
-0.0238037,0.023468
0.0012207,0.0229004
0.00244141,0.0228088
-0.0152588,0.0222717
-0.0134277,0.022229
-0.0146484,0.0221802
-0.0134277,0.0222839
-0.00305176,0.0220093
-0.0140381,0.0218811
-0.0170898,0.0217468
0.00366211,0.021582
-0.0201416,0.0214417
0.00793457,0.0213257
0.0219727,0.0213135
-0.0292969,0.0213135
-0.022583,0.0212952
0.0268555,0.0214233
0.0457764,0.0217407
-0.0476074,0.0221802
0.0115967,0.0216858
-0.0238037,0.0217285
-0.00427246,0.0214111
-0.00976563,0.02146
0.0158691,0.0207581
-0.0158691,0.0207642
-0.0146484,0.0206604
0.0128174,0.0205444
0.0170898,0.0203369
-0.00732422,0.0200256
-0.0012207,0.0199524
-0.0408936,0.0199829
-0.0012207,0.0197388
-0.0146484,0.0193542
-0.055542,0.0192627
-0.0140381,0.0191406
-0.0543213,0.0194885
0.00732422,0.0194763
0.010376,0.0194275
0.00610352,0.0191467
0.0256348,0.01922
0.0311279,0.0194275
0.0238037,0.0196655
-0.00244141,0.0190247
-0.0201416,0.0189026
-0.0280762,0.0188049
-0.0238037,0.0188599
-0.0524902,0.0189941
-0.0488281,0.0193604
-0.045166,0.0198059
-0.0372314,0.0199585
-0.0213623,0.0198547
0.00183105,0.0197754
-0.012207,0.0198486
-0.00732422,0.019342
0,0.019043
0.0604248,0.0190918
-0.0305176,0.0190796
-0.0292969,0.0192871
