EMG,EMG ¿n¤À
0.00671387,0
-0.00976563,6.71E-05
-0.0335693,0.000164795
-0.0262451,0.000500488
0.0164795,0.000762939
0.0219727,0.000927734
-0.020752,0.00114746
-0.0213623,0.00135498
-0.0286865,0.0015686
-0.0274658,0.00185547
-0.0170898,0.00213013
0.00610352,0.00230103
-0.0177002,0.00236206
-0.0164795,0.00253906
-0.00610352,0.00270386
0.0012207,0.00276489
-0.00915527,0.0027771
0.0158691,0.00286865
0.00305176,0.00302734
0.00610352,0.00305786
0.0299072,0.0031189
0.0268555,0.00341797
0.043335,0.00368652
0.0354004,0.00411987
0.0445557,0.00447388
0.0317383,0.00491943
0.0317383,0.00523682
0.0396729,0.0055542
-0.03479,0.00595093
-0.00732422,0.00629883
-0.0701904,0.00637207
-0.0787354,0.00707397
-0.0366211,0.00786133
-0.0476074,0.00822754
-0.0604248,0.00870361
-0.0341797,0.00930786
-0.010376,0.00964966
0.0115967,0.00975342
0.0531006,0.00986938
0.0567627,0.0104004
0.0268555,0.010968
0.0421143,0.0112366
0.0140381,0.0116577
0.0274658,0.0117981
0.0250244,0.0120728
0.0109863,0.012323
-0.00915527,0.0124329
0.00915527,0.0125244
0.00366211,0.012616
0.0012207,0.0126526
-0.00427246,0.0126648
0.00793457,0.0127075
-0.00915527,0.0127869
0.00732422,0.0128784
0.0170898,0.0129517
0.0494385,0.0131226
-0.00610352,0.0136169
-0.00183105,0.013678
0.0494385,0.0136963
0.0256348,0.0141907
-0.0286865,0.014447
-0.0170898,0.0147339
-0.00305176,0.0149048
-0.0323486,0.0149353
-0.0366211,0.0152588
-0.0134277,0.015625
-0.00671387,0.0157593
-0.010376,0.0158264
-0.012207,0.0159302
0.0170898,0.0160522
0.045166,0.0162231
0.00915527,0.0166748
0.0244141,0.0167664
0.00244141,0.0170105
0.0317383,0.0170349
-0.0213623,0.0173523
-0.03479,0.0175659
-0.0238037,0.0179138
-0.00305176,0.0181519
-0.0396729,0.0181824
-0.0244141,0.0185791
-0.00549316,0.0188232
0.000610352,0.0188782
0,0.0188843
-0.00305176,0.0188843
0.00732422,0.0189148
0.0512695,0.018988
-0.00488281,0.0195007
0.0140381,0.0195496
0.057373,0.0196899
-0.0158691,0.0202637
0.00244141,0.0204224
-0.00427246,0.0204468
0.000610352,0.0204895
0.010376,0.0204956
-0.010376,0.0205994
0.000610352,0.0207031
-0.00732422,0.0207092
-0.0256348,0.0207825
-0.00610352,0.0210388
0.010376,0.0211365
0.00915527,0.0211304
0.00244141,0.0208191
-0.0244141,0.0208008
-0.010376,0.0207397
-0.0158691,0.0206787
-0.0360107,0.0208313
-0.0152588,0.0207703
0.0012207,0.0204956
-0.00183105,0.0202393
-0.000610352,0.0200745
-0.00854492,0.0200989
-0.0012207,0.0199341
0.0134277,0.0199036
0.0134277,0.0199768
0.00427246,0.0200073
0.0128174,0.0200439
-0.00366211,0.0199219
-0.010376,0.0199951
0.00488281,0.0199829
0.00854492,0.0197693
0,0.0195007
-0.0158691,0.0192261
0.00610352,0.0189331
-0.00488281,0.0185364
0.00183105,0.0182373
0.0195313,0.0181152
0.00549316,0.0177734
0.0305176,0.0177307
0.0152588,0.0178101
0.0305176,0.0174133
0.0250244,0.0168762
0.0299072,0.0168091
0.00732422,0.0164063
-0.0109863,0.0159119
-0.00366211,0.0156067
-0.00915527,0.0155945
-0.00976563,0.0155762
-0.0195313,0.0152405
0.00488281,0.0147217
-0.0213623,0.0146667
0,0.0142456
0.00427246,0.0141479
0.0152588,0.0140259
0.0170898,0.0139465
0.00671387,0.0139038
-0.0183105,0.0139954
-0.010376,0.0140076
0.0152588,0.0141235
0.00915527,0.0142029
0,0.0141602
0.0183105,0.0142639
0.00976563,0.01427
0.00427246,0.0142395
-0.0128174,0.0141968
-0.00366211,0.013739
0.0115967,0.0137939
-0.00671387,0.0138428
-0.00305176,0.0133789
-0.00549316,0.0131775
-0.00183105,0.0129089
0.0262451,0.0130005
0.0152588,0.0131226
-0.00671387,0.0128662
0.0262451,0.0127625
0.0250244,0.0128784
0.0213623,0.0130249
-0.00427246,0.0129639
-0.00488281,0.0128906
0.00671387,0.0127869
0.010376,0.012439
-0.00854492,0.0124329
0,0.0121887
0.000610352,0.0121704
-0.0012207,0.0118652
0.00366211,0.0116882
0.00488281,0.0113892
0.0311279,0.0114624
0.0195313,0.0116272
-0.0305176,0.0115356
0.0280762,0.0115723
0.0256348,0.0117737
0.0115967,0.0118835
0.00732422,0.0119568
-0.00793457,0.0120056
-0.00793457,0.0120117
0.00610352,0.0115601
0.0213623,0.0117249
0.0164795,0.0117493
-0.0323486,0.011499
-0.010376,0.0114441
-0.0189209,0.0116089
-0.00488281,0.011615
-0.00427246,0.0116516
-0.0201416,0.0117493
-0.020752,0.011853
-0.0390625,0.0122375
-0.00183105,0.0121826
0.00671387,0.0119934
0.010376,0.0120361
0.0164795,0.0120972
0.0128174,0.0121338
0.00610352,0.0121704
-0.0158691,0.012085
0.00915527,0.0120728
-0.0152588,0.0120667
-0.00793457,0.0117859
-0.0183105,0.0118164
-0.00732422,0.0118774
-0.00305176,0.0118896
-0.0128174,0.0120117
-0.000610352,0.0119324
0.00976563,0.0120178
0.00366211,0.0119202
0.0195313,0.0119812
-0.010376,0.0120422
-0.00732422,0.0119873
-0.00427246,0.0119934
0.0012207,0.0119019
0.00915527,0.0119446
-0.000610352,0.0118652
0.00793457,0.0119446
0.0335693,0.0121216
0.00549316,0.0121155
0.00183105,0.012085
0.0231934,0.0122986
0.00732422,0.0121765
0.0115967,0.0122375
0.0262451,0.0121948
-0.0134277,0.0121765
-0.00732422,0.0119446
0.0164795,0.0118591
-0.0219727,0.0117798
0.0109863,0.0118164
0.00427246,0.0117493
0.010376,0.0118164
0.0335693,0.0120605
0.0469971,0.0124329
-0.012207,0.0123596
-0.00915527,0.0124023
0.0219727,0.0124084
0.010376,0.0125122
0.0213623,0.0126831
-0.0262451,0.012793
-0.0256348,0.0128784
-0.0311279,0.0131226
-0.012207,0.0130615
0.0115967,0.0130737
0.0158691,0.0130798
0.0152588,0.0131409
0.0128174,0.013269
0.00793457,0.0131653
0.0354004,0.0134216
0.0598145,0.0139771
0.0164795,0.0140137
0.00549316,0.014032
-0.0378418,0.0142944
0.0140381,0.0143677
0.0012207,0.0143494
-0.0427246,0.0147217
-0.0408936,0.0151123
-0.0213623,0.0150635
-0.0323486,0.0152344
0.00305176,0.0151978
0.00305176,0.0149658
-0.00549316,0.0147705
0.0201416,0.0147583
0.00366211,0.0147522
-0.00183105,0.0147217
-0.00305176,0.0146851
0.00183105,0.0145996
0.00305176,0.0145447
-0.0140381,0.0146851
-0.00366211,0.0147156
0.00427246,0.0147461
-0.00183105,0.0147278
-0.0115967,0.0147949
-0.00427246,0.0145264
0.0115967,0.014447
0.00183105,0.0141602
-0.0286865,0.0141663
-0.012207,0.014032
0.010376,0.0140198
-0.0262451,0.014209
-0.00244141,0.0141541
0.00305176,0.0141052
0.00305176,0.0140747
-0.00610352,0.0139221
0.012207,0.0138794
0.0183105,0.013739
0.0189209,0.0138245
0.0134277,0.0137695
0.00183105,0.013739
0.0183105,0.0138794
0.0170898,0.0138489
0.00488281,0.0136902
0.000610352,0.0133057
0.0140381,0.0134277
0.00366211,0.0133972
-0.020752,0.013501
-0.00183105,0.0133545
-0.0213623,0.0134399
0.000610352,0.013385
0.00366211,0.0132629
0.00305176,0.0132019
-0.00793457,0.0131287
0.00915527,0.0131409
0.0115967,0.0130737
0.0280762,0.0132813
0.00488281,0.0132996
-0.0164795,0.0133362
0.00488281,0.0133789
0.00671387,0.0133484
0.00549316,0.0133667
0.00183105,0.0131897
-0.012207,0.013208
0.0109863,0.0132446
0.0360107,0.013562
0.0408936,0.0139587
-0.0012207,0.0138794
-0.0292969,0.0141663
0.0115967,0.0142029
0.00488281,0.013916
-0.0140381,0.0140015
-0.00366211,0.0140198
-0.0189209,0.0139771
-0.0250244,0.0141541
-0.00366211,0.0140747
-0.000610352,0.0138184
0.0238037,0.0139221
0.0201416,0.0140503
-0.00793457,0.0139648
-0.00732422,0.0138184
0.0170898,0.0138794
0.0219727,0.0140564
-0.00854492,0.0140381
-0.0152588,0.013855
0.0152588,0.0135376
-0.022583,0.0136414
-0.03479,0.0138977
-0.0201416,0.0138794
-0.0158691,0.0139343
-0.0256348,0.0139771
-0.0213623,0.0139282
0.00976563,0.0137695
-0.00671387,0.0135254
-0.00915527,0.0134949
-0.00427246,0.0134216
0.00854492,0.0133484
0.0152588,0.0133484
-0.00976563,0.0133179
-0.0134277,0.0133728
0.00183105,0.0130371
-0.0146484,0.0125854
-0.00244141,0.0124451
-0.00854492,0.0124756
-0.000610352,0.0121033
0.0164795,0.0121277
0.0140381,0.0122559
0.00854492,0.0119141
0.0219727,0.0117249
0.010376,0.011615
0.012207,0.0114136
-0.00305176,0.0114136
0.0158691,0.0115417
0.0262451,0.0117493
0.0140381,0.0116882
0.00915527,0.0117432
0.00610352,0.0117859
0.0317383,0.0120728
0.0610352,0.0126648
-0.0213623,0.0128479
0.0292969,0.0130005
0.0012207,0.0129761
-0.0219727,0.0131531
-0.0158691,0.0132935
-0.0201416,0.0133789
0.0213623,0.0135498
0.00488281,0.0134827
0.0323486,0.0137878
0.0402832,0.0139038
0.0421143,0.0142029
-0.00427246,0.0141418
0.0128174,0.0140076
0.0628662,0.0146118
-0.00488281,0.0146301
-0.0408936,0.0150085
-0.022583,0.0151733
-0.0439453,0.0154907
-0.00549316,0.0153625
-0.0177002,0.0153503
-0.03479,0.015564
-0.0280762,0.0158264
0.00305176,0.0156738
-0.00549316,0.0155579
-0.00305176,0.0155396
-0.0213623,0.0157471
-0.00244141,0.0156311
0.0109863,0.0157043
0.012207,0.0156189
0.00244141,0.015625
-0.0213623,0.015625
0.00854492,0.0157043
-0.00366211,0.0157043
-0.00427246,0.0157166
-0.000610352,0.0156433
0.00183105,0.0155701
0.0152588,0.0156067
-0.020752,0.0155334
0.00427246,0.0155273
0.0183105,0.0155457
-0.022583,0.0157227
-0.0146484,0.015802
-0.00183105,0.0157654
-0.022583,0.0159729
-0.0128174,0.015979
-0.00549316,0.0159241
-0.00854492,0.0156494
-0.000610352,0.0152466
0.0146484,0.0153809
-0.0012207,0.0151001
0.012207,0.0151062
0.0183105,0.0152405
0.00244141,0.0151245
-0.00427246,0.0151306
0.00488281,0.0149902
0.0231934,0.0149719
0.0323486,0.0152588
0.0170898,0.0154236
-0.0201416,0.015387
0.0286865,0.0154724
0.0494385,0.0158875
-0.00427246,0.0158569
-0.0238037,0.0159241
-0.00244141,0.0157288
0.0213623,0.0158569
-0.00488281,0.0157532
-0.0292969,0.0158936
-0.012207,0.0157898
0.0292969,0.0157349
0.0268555,0.015802
-0.00915527,0.0157349
-0.0341797,0.0158203
-0.00488281,0.0156555
-0.0128174,0.015686
-0.0109863,0.0157288
-0.0238037,0.0158752
-0.0183105,0.0160156
-0.0244141,0.0161743
0.00671387,0.0160889
0.0189209,0.0161804
0.0457764,0.0165039
0.020752,0.0166931
0.00671387,0.0166138
-0.00915527,0.0166809
0.0231934,0.0168274
-0.0262451,0.0170837
-0.0292969,0.0172119
-0.032959,0.0174011
-0.0323486,0.0176392
-0.03479,0.0177673
-0.0195313,0.0178589
-0.010376,0.0178406
-0.0109863,0.0179199
0.00671387,0.0178284
0.0183105,0.017749
0.0341797,0.0179504
0.0354004,0.0182129
0.0366211,0.0185181
0.0256348,0.018457
0.0701904,0.0185486
0.0744629,0.0190796
0.0756836,0.0195435
-0.0183105,0.0197144
0.0250244,0.0197449
0.0256348,0.0198425
-0.00793457,0.0197205
-0.020752,0.0197144
0.0909424,0.020575
0.0933838,0.0211853
0.00915527,0.020874
-0.0579834,0.0210327
0.0714111,0.0217041
0.114746,0.0227234
0.088501,0.0229797
-0.0695801,0.0236267
-0.00244141,0.0232422
-0.090332,0.0239197
-0.0488281,0.0239685
-0.055542,0.024469
-0.0378418,0.0246704
-0.090332,0.0252258
-0.0836182,0.0257813
-0.078125,0.026532
-0.0299072,0.0267761
-0.0494385,0.02724
-0.0183105,0.0272095
-0.00549316,0.02724
-0.0335693,0.0274658
-0.0439453,0.0277832
0.00793457,0.0278381
0.000610352,0.0276306
-0.0311279,0.0278564
-0.010376,0.0279236
0.0189209,0.0280701
-0.00671387,0.0281311
-0.00366211,0.0281494
0.0164795,0.0281616
0.0134277,0.0280884
0.010376,0.0281494
-0.00915527,0.0280579
-0.00244141,0.0278564
-0.0183105,0.0278931
0.022583,0.0281006
-0.020752,0.0280823
-0.0158691,0.0281128
-0.0164795,0.0282227
0.0146484,0.0282837
-0.0354004,0.0286316
0.0299072,0.0287842
-0.00976563,0.0288696
0.00305176,0.0287781
-0.0146484,0.0287415
-0.00366211,0.0287537
0.010376,0.0288147
-0.00183105,0.0287842
-0.0231934,0.0287842
-0.0183105,0.0286438
0.00793457,0.0285522
0.00427246,0.0283936
0.0152588,0.0282593
-0.0115967,0.0278809
0.0195313,0.0280334
0.0170898,0.0279663
0.00549316,0.0279968
0.0164795,0.027948
-0.0262451,0.0281616
-0.00915527,0.0279602
-0.00793457,0.0279175
-0.0219727,0.0278442
-0.0140381,0.0277161
-0.00610352,0.0276855
0.0183105,0.0275269
0.0238037,0.0277161
0.00549316,0.0276428
0.0158691,0.0276917
0.00244141,0.027478
0.0189209,0.0274841
-0.00366211,0.0272766
-0.00549316,0.0272644
0.00488281,0.027124
0.00610352,0.0267273
0.00488281,0.0265686
-0.03479,0.0268494
0.00732422,0.0268311
0.0457764,0.0270569
0.0109863,0.0269043
-0.0183105,0.0267944
-0.0396729,0.0268616
-0.0177002,0.0267151
-0.0140381,0.0265076
-0.0189209,0.0265015
-0.043335,0.0268311
-0.0274658,0.0269958
-0.0146484,0.0270752
-0.0219727,0.0271118
-0.0158691,0.0269287
-0.00488281,0.0266235
0,0.0262573
0.020752,0.0262085
0.0372314,0.0258789
0.00366211,0.0251709
0.0268555,0.0246826
0.020752,0.024707
0.0274658,0.0247314
-0.00183105,0.0244934
-0.00305176,0.0244446
-0.00732422,0.0243103
-0.00183105,0.0234192
-0.0311279,0.0227966
-0.00549316,0.02276
0.000610352,0.0221863
-0.00549316,0.0215271
-0.00854492,0.0204651
0.00915527,0.0196716
0.0592041,0.0195679
0.0360107,0.0199036
0.0177002,0.0191772
-0.0335693,0.0190247
0.0115967,0.0185852
0.00915527,0.0182983
-0.00610352,0.0174561
-0.0311279,0.0169312
-0.0292969,0.0164429
-0.0231934,0.0163757
-0.00976563,0.015979
0.0128174,0.0159241
0.0219727,0.0160889
-0.00305176,0.0157837
0.0231934,0.0155762
-0.010376,0.0156006
0.0408936,0.0160034
0.0335693,0.0160278
-0.00976563,0.0160217
-0.0317383,0.0161499
-0.0317383,0.0164001
0.0195313,0.0165588
-0.00305176,0.0164246
-0.0195313,0.0164856
-0.0231934,0.0166138
-0.0231934,0.0167542
-0.0561523,0.0172913
-0.00427246,0.0171509
-0.0189209,0.0171143
-0.00854492,0.0169922
-0.00366211,0.0168701
-0.00488281,0.0167542
0.00732422,0.0166809
0.0128174,0.0164551
0.0140381,0.0162964
0.0280762,0.0164795
-0.00183105,0.0164673
0.0164795,0.0164856
0.0177002,0.016626
-0.00244141,0.0165466
0,0.0165283
-0.000610352,0.0163025
0.0299072,0.0164185
0,0.0163391
0.0158691,0.0164551
0.0183105,0.0164856
-0.0390625,0.0167603
-0.00305176,0.0165955
0.00244141,0.016449
-0.0238037,0.0166321
-0.0299072,0.0167664
-0.043335,0.0169373
-0.00671387,0.0169128
0.00610352,0.0168945
0.0256348,0.0169312
0.0244141,0.0170349
0.0140381,0.0171143
0.0585938,0.0175171
0.0152588,0.0174316
-0.0115967,0.0174927
-0.00427246,0.0173767
0.0146484,0.0174988
0.0115967,0.0174255
-0.010376,0.0174927
-0.0482178,0.0179199
-0.0378418,0.0182495
0.00793457,0.0182678
0.00793457,0.0182983
0.00915527,0.018042
-0.0152588,0.0181213
-0.0115967,0.0177795
-0.00183105,0.017688
0.00732422,0.0175781
0.00671387,0.0172485
-0.0195313,0.0172668
0.00488281,0.0171753
0,0.0169861
0.00427246,0.0165955
-0.0140381,0.0164612
-0.00549316,0.0163696
0.00610352,0.0162109
0.0012207,0.0160645
-0.00305176,0.0160461
-0.0012207,0.0160583
0.0201416,0.0160522
0.0238037,0.015918
0.00915527,0.0159729
0.0183105,0.0158875
0.00305176,0.0157104
-0.0134277,0.0155701
0.0201416,0.0157532
0.00732422,0.0157959
-0.00244141,0.0157471
-0.0164795,0.0158936
-0.00854492,0.0156677
-0.00915527,0.0157043
0.0128174,0.0158264
0.010376,0.0158752
-0.00366211,0.0158264
0.0164795,0.0158997
0.00976563,0.0154053
-0.00488281,0.015094
0.0134277,0.0150513
0.0128174,0.0148437
0.00610352,0.0147888
0.00305176,0.0147278
0.000610352,0.0146729
0.0231934,0.0145935
0.0146484,0.014447
0.0360107,0.0145752
-0.00244141,0.014502
0.0158691,0.0145325
0.0335693,0.0146484
0.0500488,0.0151184
0.0390625,0.0152771
0.0250244,0.0154236
0.0158691,0.0151733
-0.0390625,0.0152283
-0.00732422,0.0152039
0.0152588,0.0150391
-0.0378418,0.0151001
-0.0537109,0.0154419
-0.0561523,0.0159729
-0.0360107,0.0161377
-0.010376,0.0160095
-0.0292969,0.0160706
0.00427246,0.0155518
0.0152588,0.0156616
0.0274658,0.0157471
0.00915527,0.0157532
-0.00427246,0.0157593
-0.0134277,0.0158447
-0.0012207,0.0157837
-0.00671387,0.0157227
-0.0134277,0.0157166
-0.0189209,0.015625
-0.0280762,0.0158875
-0.0152588,0.0158752
0.00915527,0.0157898
0.0201416,0.0159668
0.00854492,0.0160522
0.00915527,0.0161377
0.0183105,0.0160217
0.0158691,0.0161804
0.0177002,0.0161987
-0.012207,0.0161377
-0.00244141,0.0157715
0.00732422,0.0158142
-0.00366211,0.0158264
-0.00183105,0.0156067
0.00427246,0.0153503
-0.010376,0.0150208
-0.0219727,0.0151733
-0.00488281,0.0151611
0.00488281,0.0149536
-0.0146484,0.014856
-0.00854492,0.014801
0.020752,0.0144226
-0.00854492,0.0143555
0.0250244,0.0144897
0.0152588,0.0145996
0.0250244,0.0147034
0.0256348,0.0148437
0.00976563,0.0148376
0.0146484,0.014502
-0.010376,0.0142273
0.00610352,0.014209
0.0183105,0.0143127
-0.0305176,0.0145264
-0.0012207,0.014386
-0.0134277,0.0144043
0.0170898,0.0145569
-0.0128174,0.0146118
-0.0360107,0.0149048
-0.0158691,0.0148682
-0.00732422,0.0148926
0,0.0148926
0.00305176,0.0148804
-0.00427246,0.0147827
0.0170898,0.0148987
-0.0128174,0.0149658
0.0152588,0.0151062
0.0268555,0.0153442
-0.0012207,0.0153442
0.0128174,0.015271
0.00488281,0.0150818
0.00610352,0.0150513
-0.010376,0.0149719
-0.0012207,0.0149536
0.012207,0.0149414
-0.00366211,0.0147766
0.0134277,0.0148376
0.0012207,0.0148254
-0.00488281,0.0147095
-0.0140381,0.0147644
-0.012207,0.0147949
0.0244141,0.0149109
-0.00427246,0.0148499
-0.00366211,0.0148499
-0.0152588,0.0148376
-0.0213623,0.0149536
0.010376,0.0150085
-0.00793457,0.0149536
-0.00610352,0.0148865
0.00488281,0.0148743
-0.0268555,0.0151123
-0.0146484,0.0152527
-0.0012207,0.015033
0.00305176,0.014917
0.00427246,0.0145996
-0.00976563,0.0146729
0.00732422,0.0145874
0.0305176,0.0145569
-0.000610352,0.0140625
0.00549316,0.0137268
0.0183105,0.0136597
0.0360107,0.0138611
-0.0012207,0.0134827
0.00732422,0.0134827
-0.000610352,0.0133362
0.0170898,0.0131287
0.0140381,0.0127319
-0.012207,0.0122925
-0.00549316,0.0119873
0.0305176,0.0121887
0.0738525,0.0126343
0.0524902,0.0131165
-0.00671387,0.013031
0.00366211,0.012793
0.100098,0.0137024
0.166016,0.0153198
0.145264,0.0166382
0.00549316,0.0166809
-0.0775146,0.0173889
0.00305176,0.0172852
0.119019,0.0182861
0.0177002,0.0181824
-0.0854492,0.0188843
-0.175781,0.0205505
-0.0689697,0.0210388
-0.000610352,0.0209595
-0.0543213,0.0214111
-0.057373,0.0218018
-0.0408936,0.022052
0.012207,0.0219971
0.022583,0.0221008
0.0469971,0.0225464
-0.0134277,0.0226074
-0.0238037,0.0228088
0.0384521,0.023175
0.0360107,0.0234924
-0.0195313,0.023584
-0.0360107,0.0237244
-0.0372314,0.0240479
0,0.023999
-0.045166,0.0243042
-0.00549316,0.0242737
0.0128174,0.0241943
-0.0140381,0.0242493
-0.0244141,0.0242432
-0.00976563,0.0241882
-0.00732422,0.0240112
-0.0128174,0.0238831
-0.0170898,0.0239563
-0.0134277,0.0239441
-0.00732422,0.0239136
0.00732422,0.0239258
0.010376,0.0238464
-0.0012207,0.0235535
0.00244141,0.0235657
0.00976563,0.0235291
0.00427246,0.0234009
-0.00427246,0.0233154
0.0012207,0.0229675
-0.00305176,0.0228394
-0.0170898,0.022937
-0.00427246,0.0229797
0.00427246,0.0229919
0.032959,0.0232788
-0.00854492,0.0231934
-0.0128174,0.0231934
0.043335,0.0234741
0.0231934,0.0234375
-0.00244141,0.0234497
0,0.0233215
0.00244141,0.0232971
0.0183105,0.0234192
-0.0335693,0.0236511
-0.00854492,0.0237244
0.00366211,0.0236389
-0.00854492,0.0236877
-0.0109863,0.0236633
-0.012207,0.0237732
-0.0170898,0.0238953
0.00305176,0.0237854
0.00244141,0.0236877
-0.00854492,0.0235291
-0.0164795,0.0236511
-0.00488281,0.0236633
0.00732422,0.023584
0.000610352,0.0233765
0.0012207,0.0232849
0.0164795,0.0233704
0.0158691,0.023468
0.0219727,0.0236389
-0.0354004,0.0237244
0.0317383,0.0238953
-0.00244141,0.0239075
-0.0177002,0.024054
0.00183105,0.0240295
-0.0012207,0.0239441
-0.0146484,0.0240173
0.00610352,0.0237732
0.0183105,0.0239502
0.00549316,0.0239502
0.0164795,0.0239319
0.00305176,0.0236023
0.0268555,0.0238586
0.0360107,0.0241455
0.0274658,0.0244141
-0.0170898,0.0244141
0.00854492,0.0243591
0.0354004,0.0245911
0.0244141,0.0247803
0.00488281,0.0245239
-0.0512695,0.0242981
-0.00732422,0.0238464
-0.00793457,0.0238586
-0.000610352,0.0238281
-0.00793457,0.0229065
-0.0494385,0.0217407
-0.0354004,0.0206421
-0.00610352,0.0206482
-0.00305176,0.0199036
-0.0140381,0.0200134
-0.00427246,0.018866
-0.0152588,0.0188416
-0.0140381,0.0181274
-0.0164795,0.0165344
0.00732422,0.015918
-0.00183105,0.0159302
0.0286865,0.0156738
-0.0195313,0.0152954
0.0292969,0.0151794
0.010376,0.0151611
0.0463867,0.0153992
0.0146484,0.0150757
0.0421143,0.0153625
0.0311279,0.0154358
0.10437,0.016095
0.0335693,0.0160706
0.0140381,0.0160156
0.0878906,0.0165344
-0.057373,0.0167358
0.00610352,0.0167969
0.0878906,0.0172241
-0.0219727,0.0173889
-0.0482178,0.0177429
-0.0598145,0.0182007
-0.0250244,0.0182068
-0.032959,0.0184387
-0.0616455,0.0189819
-0.043335,0.0192871
-0.0531006,0.0196472
-0.0616455,0.0201294
-0.0500488,0.0205566
-0.0268555,0.020752
-0.0158691,0.0208069
-0.00793457,0.020874
0.00610352,0.0209106
-0.00793457,0.0208923
-0.00305176,0.0208801
0.00244141,0.0208618
0.00488281,0.0208984
-0.000610352,0.020874
0.00427246,0.0207458
0.00976563,0.0208008
0.00305176,0.0207886
0.0256348,0.0207153
-0.000610352,0.020636
0.0012207,0.02052
0.0189209,0.0202759
0.0189209,0.0202332
0.0152588,0.0203613
0.0128174,0.0204895
0.00549316,0.02052
-0.0109863,0.0204468
-0.00427246,0.0201538
0.0286865,0.0203552
0.00854492,0.0204041
-0.0238037,0.0205566
-0.0372314,0.0208191
-0.0219727,0.0209167
0.000610352,0.020752
-0.00183105,0.0207397
-0.0158691,0.020874
-0.00610352,0.0208496
0.00854492,0.0207703
0.0152588,0.020874
0.00732422,0.020874
0.0012207,0.0208801
0.0012207,0.0208801
-0.00610352,0.0207764
0,0.0206177
-0.00854492,0.0204834
-0.00915527,0.0202209
0.00183105,0.0199219
0.0115967,0.0200134
0.0189209,0.0200256
0.00732422,0.0200806
0.00366211,0.020105
0.010376,0.0200623
0.0140381,0.0201416
-0.00671387,0.0200256
-0.010376,0.0200745
-0.00915527,0.0200012
-0.0219727,0.0201904
0.0213623,0.0201355
-0.00305176,0.0198059
-0.00366211,0.0195679
0.010376,0.0195007
0.0231934,0.0196472
0.0415039,0.0197083
-0.00427246,0.0195068
-0.00183105,0.0194763
0.00366211,0.0190002
0.00549316,0.0189819
-0.020752,0.0191101
-0.0305176,0.0194092
-0.0256348,0.0195862
-0.0341797,0.0194336
-0.00915527,0.0191711
0.00183105,0.0191284
0.0231934,0.0193298
-0.00671387,0.0192566
0.00183105,0.0192322
0.022583,0.0193054
0.00976563,0.0192627
0.0183105,0.019281
0.0201416,0.0194092
-0.0195313,0.0195862
-0.00610352,0.0193604
0.0415039,0.0195801
-0.000610352,0.0192932
-0.00549316,0.0192444
-0.0109863,0.0188904
0.00854492,0.0188293
-0.00549316,0.0184631
-0.00366211,0.0181885
-0.0323486,0.0174683
-0.00549316,0.0171875
0.00732422,0.0171204
-0.012207,0.0163635
-0.00244141,0.0158142
0.0231934,0.0159851
0.00915527,0.0151978
-0.00427246,0.0150208
0.0183105,0.0147217
0.00549316,0.0141785
0.0152588,0.0140808
-0.0134277,0.0138855
-0.010376,0.0133728
0,0.0129395
0.00183105,0.0124268
-0.00732422,0.0118835
0.0115967,0.011499
0.0134277,0.0113647
0.00610352,0.0112671
0.00427246,0.0112305
-0.00976563,0.0112671
0.0311279,0.011499
0.0183105,0.0116516
-0.010376,0.011731
-0.00488281,0.011731
-0.0195313,0.0119202
-0.0158691,0.0120361
0.0256348,0.0121948
0.00671387,0.0122314
-0.0140381,0.0121155
0.000610352,0.0121155
0.00732422,0.0121765
0.0195313,0.0121826
-0.00183105,0.0120117
-0.00488281,0.011908
0.0152588,0.0119324
-0.0201416,0.0120789
0.00732422,0.0120422
0.0134277,0.0121338
0.022583,0.0120728
-0.0183105,0.0121704
-0.0140381,0.0120728
-0.010376,0.0118042
-0.000610352,0.0115906
-0.00244141,0.0116089
-0.0152588,0.0117432
-0.00610352,0.0116455
-0.0128174,0.0117126
-0.00793457,0.0117065
-0.00976563,0.0116516
0.0109863,0.0116882
0.000610352,0.0116821
-0.00793457,0.0117493
-0.0164795,0.011853
-0.00488281,0.0119019
-0.00915527,0.011908
-0.00671387,0.0118835
-0.00732422,0.0119385
0.00244141,0.0118469
-0.0012207,0.0116699
0.00488281,0.0116455
0.00183105,0.0116272
0.0109863,0.0116333
0.00244141,0.0115173
0.00183105,0.0114685
0.00915527,0.0114563
0.0177002,0.0115417
0,0.011322
0.00305176,0.0111389
0.00671387,0.0111755
0.0158691,0.0112976
0.00488281,0.0112427
0.00915527,0.0111023
0,0.0106873
-0.00488281,0.0106934
0.00793457,0.0107544
-0.012207,0.0108398
-0.00183105,0.0108032
-0.0115967,0.0107117
-0.00488281,0.0104553
-0.00732422,0.0102722
-0.0109863,0.0100403
0.000610352,0.00995483
0.00732422,0.0100098
0.0146484,0.00992432
0.00305176,0.0098877
0.00732422,0.00994263
-0.0128174,0.00984497
0.0128174,0.00987549
-0.00549316,0.00974731
-0.0158691,0.00970459
-0.0109863,0.00961914
-0.00610352,0.00961914
-0.000610352,0.00921021
-0.0146484,0.00935059
-0.0189209,0.00948486
0.00244141,0.00939941
0.00183105,0.00933228
0.000610352,0.00928345
0.022583,0.00947266
0.0140381,0.00928955
-0.0183105,0.00941772
-0.010376,0.00944824
0.0128174,0.00945435
0.010376,0.00953369
0.000610352,0.00930786
0.00183105,0.00923462
-0.00366211,0.00922852
-0.00549316,0.00910034
-0.0012207,0.00905762
0.0177002,0.00908203
0.0170898,0.00911865
-0.00976563,0.00911255
0.00610352,0.00917358
0.00305176,0.00918579
0,0.00911255
-0.00244141,0.009021
0.0250244,0.00913696
0.00305176,0.00910645
-0.0164795,0.00922852
-0.00427246,0.00917358
-0.00976563,0.00895996
0.0109863,0.00888672
-0.000610352,0.00878906
-0.0195313,0.00893555
-0.010376,0.00884399
0.00427246,0.00872803
0.00305176,0.0085022
0.0189209,0.00862427
0.0268555,0.00875244
0.0115967,0.0088623
0.0134277,0.00892334
0.0158691,0.00888672
0.0128174,0.00899658
0.00671387,0.00901489
0.012207,0.00898438
-0.0219727,0.00900269
-0.0268555,0.009198
-0.00793457,0.00914307
0.000610352,0.00892334
-0.020752,0.00894775
-0.00488281,0.0088562
-0.00488281,0.00880127
-0.0012207,0.00880737
-0.0012207,0.00879517
0.00427246,0.0086853
0.00915527,0.00871582
-0.00427246,0.00863037
0.00488281,0.00859985
0.0128174,0.00863037
0.00488281,0.00856934
0.00183105,0.00858154
0.000610352,0.0085083
0.0268555,0.00861206
0.0250244,0.00881348
-0.00610352,0.00878296
-0.00671387,0.00878296
-0.00488281,0.00875854
-0.00915527,0.00882568
0,0.00881348
-0.00976563,0.0088623
-0.0183105,0.0090271
-0.0134277,0.00905151
-0.0115967,0.00914307
0.0012207,0.00913696
-0.000610352,0.00905151
-0.00305176,0.00890503
-0.0109863,0.00901489
0.00610352,0.00904541
0.0170898,0.00914917
-0.0158691,0.00914917
-0.00915527,0.00919189
-0.00854492,0.00918579
0.00915527,0.00927734
0.00610352,0.00928955
-0.0146484,0.00935669
-0.00610352,0.00929565
-0.00610352,0.00933838
-0.00671387,0.00928955
0.00976563,0.00933838
0.0219727,0.00948486
-0.0238037,0.00961304
0.0109863,0.0097168
0.0213623,0.00985718
0.00305176,0.00974121
0.00671387,0.00977783
0.0140381,0.00984497
0.00854492,0.00980225
0.00183105,0.00969238
-0.0146484,0.00978394
0.000610352,0.00963135
0.00488281,0.00957031
-0.00488281,0.00955811
-0.0183105,0.00973511
0.000610352,0.00959473
-0.010376,0.00950928
-0.00854492,0.00957031
0.00305176,0.00958252
0.00488281,0.00962524
-0.0238037,0.00963745
0.0134277,0.00963135
0.0360107,0.00980835
-0.00854492,0.00979004
0.00244141,0.00968628
-0.0415039,0.00999756
0,0.00999146
-0.0195313,0.0101685
-0.00610352,0.0101929
-0.00976563,0.0102356
-0.0183105,0.0104065
-0.00732422,0.0103027
0.00427246,0.0101746
0.00549316,0.0101318
0.0201416,0.0102722
-0.00854492,0.0103271
0.00488281,0.010376
0.0170898,0.0105225
-0.00183105,0.0102905
-0.00427246,0.0103027
-0.00549316,0.0101929
0.0262451,0.0104126
0,0.0103149
-0.0219727,0.0104248
0.0134277,0.010553
0.00183105,0.010376
0.00366211,0.0103088
-0.0299072,0.0105652
-0.00183105,0.010553
-0.0292969,0.0106567
-0.020752,0.0105957
0.00854492,0.0105652
-0.0598145,0.0110291
-0.0201416,0.0110718
-0.010376,0.0110474
-0.0146484,0.0111267
-0.00793457,0.011084
-0.00671387,0.0109314
0.0134277,0.0107971
0.0396729,0.0111145
0.00427246,0.0111511
-0.00244141,0.010968
0.0274658,0.0111938
0.00976563,0.0112427
0,0.0112305
-0.0402832,0.0116211
-0.00244141,0.0116028
-0.00366211,0.0115479
-0.0299072,0.0118042
-0.0305176,0.0120605
-0.0231934,0.0121643
0.00732422,0.0121887
-0.022583,0.0123962
0.012207,0.0125122
-0.00244141,0.0122681
0.020752,0.0122253
0.00976563,0.012262
0.0268555,0.0124634
0.032959,0.0127441
0.0366211,0.0130188
0.0262451,0.0132813
0.0445557,0.0136292
-0.0231934,0.013678
0.0146484,0.0136902
0.0421143,0.0139954
0.0128174,0.0141113
-0.0213623,0.0143188
-0.0518799,0.0148071
0.00915527,0.0147888
-0.0146484,0.0148743
-0.00305176,0.0147339
0.00793457,0.0146545
-0.03479,0.0149109
0.0299072,0.0151245
0.043335,0.0154663
-0.00305176,0.0154358
-0.0274658,0.015564
0.0012207,0.0155151
0.00610352,0.0155151
0.00793457,0.0155273
-0.020752,0.0156372
0.00671387,0.0154846
0.0140381,0.015387
-0.00671387,0.0153442
0.0195313,0.0153259
0.0366211,0.0156616
-0.0396729,0.0159912
-0.0012207,0.015863
0.0170898,0.0159485
-0.0341797,0.016272
-0.0109863,0.0162354
-0.0427246,0.0166565
-0.0311279,0.0169189
-0.00854492,0.0169556
-0.010376,0.0168762
0.00732422,0.0169434
0.0415039,0.0172546
0.020752,0.0173767
0.0469971,0.0178162
0.0378418,0.0181458
0.0610352,0.0185181
0.103149,0.0194153
0.0970459,0.0200256
-0.10437,0.0209839
-0.0488281,0.0214478
0.0317383,0.0213501
-0.0250244,0.0216003
-0.0750732,0.0221558
-0.0714111,0.0228088
-0.0683594,0.0233948
-0.00976563,0.0233093
0.00183105,0.0232544
0.00976563,0.0233093
0.00244141,0.0232788
0.00732422,0.0231506
-0.00183105,0.0230835
-0.0219727,0.0232544
-0.0213623,0.0232971
-0.0177002,0.0234558
-0.0189209,0.0236023
-0.0170898,0.0237183
-0.00305176,0.0234863
0.0012207,0.0234985
0.0427246,0.0237061
-0.0250244,0.023822
0.032959,0.0241333
0.0317383,0.0244141
0.0311279,0.0244263
0.0170898,0.0245789
0.0183105,0.024469
-0.0189209,0.0244507
-0.020752,0.0245728
-0.0140381,0.024115
0.00915527,0.0240051
0.0115967,0.0240173
-0.00244141,0.0238953
0.0238037,0.024054
0.0109863,0.0240967
0.078125,0.0247437
0.00366211,0.0243835
-0.0384521,0.0247253
0.0354004,0.0250549
0.00793457,0.0248596
-0.0354004,0.025116
-0.0421143,0.0255371
-0.020752,0.0253418
-0.0286865,0.0256042
-0.00610352,0.0256287
-0.0299072,0.0256287
-0.0183105,0.0255066
-0.0262451,0.0255371
0,0.0254639
0.0140381,0.0253784
-0.0335693,0.025592
-0.0164795,0.0257324
-0.0390625,0.0259155
0.00793457,0.0258972
0.0305176,0.0259338
0.00488281,0.0256531
0.00549316,0.0253418
0.00427246,0.0251221
0.0268555,0.0249451
0.0213623,0.0249268
0.00671387,0.0248474
0.0604248,0.0250305
0.105591,0.0259583
0.0238037,0.0259827
-0.137329,0.0268372
0.00610352,0.0268066
0.0378418,0.0270386
0.000610352,0.0270142
-0.0366211,0.027301
-0.0402832,0.027356
-0.0256348,0.0273132
-0.0195313,0.0270752
0.0164795,0.0272095
0.0378418,0.0273132
-0.00183105,0.0273193
0.0115967,0.0273743
0.020752,0.0275024
0.010376,0.0273987
-0.0299072,0.0276306
0.0128174,0.0276184
0.0482178,0.0280334
-0.00488281,0.027887
-0.0427246,0.027948
0.0787354,0.0283386
0.0787354,0.0291138
-0.00915527,0.0290344
-0.0415039,0.0291077
-0.00549316,0.0290527
0.0299072,0.0289246
-0.0311279,0.0289246
-0.00732422,0.0289124
0.0158691,0.0289673
-0.0427246,0.0293213
-0.0567627,0.0294739
0.0915527,0.0301819
0.0701904,0.0304138
0.0189209,0.0302246
-0.0842285,0.0304565
0.0384521,0.0298096
0.0286865,0.029126
-0.0286865,0.0283691
-0.114746,0.0290283
-0.0238037,0.028949
-0.065918,0.0293579
-0.0823975,0.0294312
-0.0732422,0.0294495
0.0445557,0.0292114
-0.022583,0.0293396
-0.090332,0.0302246
-0.0695801,0.0308228
-0.00244141,0.0308228
0.0244141,0.0309937
0.067749,0.0316528
-0.0164795,0.0315979
-0.0231934,0.0316162
0.0585938,0.0320251
0.114746,0.0329834
0.131226,0.0341248
0.10498,0.035144
-0.078125,0.0359131
-0.0848389,0.0363342
0.0854492,0.0369385
0.0469971,0.0370789
-0.057373,0.0373352
-0.126343,0.0382874
0.00793457,0.0381958
0.0250244,0.0382629
0.0482178,0.0385559
0.0671387,0.0390198
0.0109863,0.0389893
0.0970459,0.0398682
-0.0482178,0.0402344
-0.0134277,0.0403442
-0.0689697,0.0407959
-0.00488281,0.0407349
-0.0915527,0.0408691
-0.0689697,0.0415222
0.0238037,0.0413757
0.0360107,0.0413818
0.0775146,0.0420776
-0.00183105,0.0417419
0.0244141,0.0415649
-0.0384521,0.0417419
-0.0421143,0.0418762
0.0616455,0.0424316
-0.159302,0.0437256
-0.0463867,0.0440063
-0.0201416,0.0439453
0.0262451,0.0442078
0.0439453,0.0445068
0.0970459,0.0451416
-0.057373,0.0455505
0.0604248,0.0457642
0.0469971,0.0461548
-0.00854492,0.0459351
-0.109253,0.0469788
-0.151367,0.0484375
-0.0366211,0.048761
-0.0714111,0.0492065
-0.0408936,0.0494019
0.0299072,0.0496338
0,0.0490295
0.00610352,0.0480347
0.0933838,0.0487305
0.0915527,0.0482727
0.145874,0.0496704
0.0897217,0.0501892
-0.0115967,0.0502991
-0.0280762,0.0502136
-0.132446,0.0511353
-0.0219727,0.0510986
0.0848389,0.0517517
-0.0994873,0.0525818
-0.0909424,0.0531128
-0.00305176,0.053125
-0.00244141,0.0530334
0.0762939,0.0535889
0.123901,0.0547241
0.0585938,0.055011
0.0976563,0.0558594
-0.24231,0.0578003
-0.231323,0.0600647
0.0714111,0.0603516
-0.0140381,0.0597046
-0.15686,0.0604858
-0.122681,0.0616211
-0.0415039,0.0616211
0.0506592,0.0620728
0.125122,0.0630249
0.13855,0.0640991
0.0958252,0.0649841
0.078125,0.0656067
-0.189209,0.0670715
-0.0189209,0.0666931
0.0335693,0.0661133
0.00793457,0.0654907
-0.0952148,0.0662537
-0.110474,0.0665161
-0.0115967,0.0662476
0.0622559,0.0665833
0.0756836,0.0670532
0.153198,0.0674377
0.149536,0.0686951
-0.0012207,0.0680481
-0.0170898,0.067395
0.0280762,0.0669434
-0.0695801,0.0671936
-0.123291,0.0682007
-0.0585938,0.0678833
-0.090332,0.0680908
-0.109253,0.0691589
-0.0494385,0.0694092
-0.0012207,0.0687439
0.045166,0.0690308
0.0506592,0.0693054
0.0628662,0.0693481
0.119629,0.069397
0.0860596,0.0689453
-0.117798,0.0690735
0.0524902,0.0688171
0.0866699,0.0688354
-0.117798,0.0691589
-0.0738525,0.0694275
0.0457764,0.0693115
-0.0250244,0.0682983
0.0427246,0.0686462
0.0292969,0.068689
0.0445557,0.0686523
-0.0170898,0.0681519
-0.0787354,0.0688293
-0.0701904,0.0685608
-0.108643,0.069165
-0.0469971,0.0695007
0.0469971,0.069281
-0.151367,0.0707458
-0.0512695,0.070343
0.0463867,0.0701172
0.0762939,0.0706421
0.110474,0.0713867
0.0946045,0.0715576
0.0726318,0.0722656
0.159302,0.0736145
0.160522,0.0748352
-0.0506592,0.0749207
-0.0341797,0.074646
-0.065918,0.0737122
0.0543213,0.0737915
0.0231934,0.073822
-0.158691,0.0751465
-0.128784,0.0759949
-0.0866699,0.0758911
-0.0268555,0.0755859
-0.0567627,0.0755493
-0.13916,0.0764709
-0.147095,0.0778564
0.144653,0.0782104
-0.133667,0.0780334
-0.088501,0.0785522
0.0201416,0.0780396
0.057373,0.0782043
0.0292969,0.0781982
0.0750732,0.078949
0.101929,0.0799072
0.0805664,0.0797791
0.0579834,0.0794434
0.0708008,0.0786926
0.0726318,0.0785217
0.0592041,0.0789978
0.00854492,0.0788025
-0.00976563,0.0775757
0.0274658,0.0776306
0.00610352,0.0768433
-0.0177002,0.0760254
-0.0469971,0.0755859
-0.0378418,0.0759338
0.00976563,0.0760071
-0.00488281,0.075293
0.00427246,0.0740967
-0.140991,0.0749207
-0.136108,0.0753052
0.0299072,0.0731812
0.057373,0.0714417
-0.0982666,0.0717102
-0.0830078,0.0723999
-0.0146484,0.0709778
0.0610352,0.0703613
0.0982666,0.070929
0.105591,0.0714783
0.117798,0.071405
0.0567627,0.0705872
0.0134277,0.0697632
-0.181274,0.0707947
-0.00732422,0.0689758
0.00366211,0.0688232
-0.0140381,0.0686279
-0.133057,0.0698792
-0.088501,0.069812
-0.0213623,0.0689209
0.0152588,0.0689575
0.0476074,0.068811
0.0628662,0.0686829
0.0817871,0.0679687
0.12085,0.0676819
-0.0292969,0.0679626
-0.0842285,0.068634
-0.220337,0.0705566
0.184326,0.0717041
0.0189209,0.0706604
-0.13916,0.0714661
-0.0939941,0.0715027
0.0012207,0.0704224
0.0238037,0.070166
0.0457764,0.0706116
0.101929,0.0711792
0.0811768,0.0714844
0.123901,0.0720947
-0.203857,0.072937
-0.0238037,0.0723145
0.0897217,0.0720337
0.0170898,0.0716797
-0.0653076,0.0714661
-0.0823975,0.0711121
-0.0109863,0.0704834
0.0238037,0.0702637
0.0366211,0.0703796
0.0488281,0.0704407
0.057373,0.0707214
0.0189209,0.0704651
0.0280762,0.070575
0.0750732,0.0705383
-0.134888,0.0711853
0.00915527,0.0701904
-0.000610352,0.0697266
-0.0445557,0.0697021
-0.0457764,0.0686462
-0.0994873,0.0691284
0.00305176,0.0686951
0.00427246,0.0679749
0.0195313,0.0670654
0.0292969,0.0664124
0.03479,0.0660339
0.0994873,0.0654358
-0.126953,0.0651001
-0.101318,0.0656067
-0.171509,0.06698
0.0402832,0.0667236
0.090332,0.0670837
-0.0476074,0.0673279
-0.0592041,0.066333
0.0170898,0.0652161
0.150757,0.0658569
0.148926,0.0670776
0.0396729,0.0669067
-0.0476074,0.0659912
-0.186768,0.0663879
-0.00549316,0.0649963
0.0439453,0.0640991
-0.0921631,0.0641357
-0.0701904,0.0646362
-0.0286865,0.0643494
0.0671387,0.0647278
0.0543213,0.0645203
0.114746,0.0646484
0.151367,0.0653564
0.0585938,0.0653625
-0.00793457,0.0647339
0.00549316,0.0640625
0.000610352,0.0634766
0.0201416,0.0635925
0.020752,0.0637024
-0.105591,0.0644836
-0.0482178,0.0649048
-0.0305176,0.065033
0.00976563,0.0646606
0.0268555,0.0645508
-0.0286865,0.06474
0.0543213,0.0652344
-0.193481,0.0671265
0.100098,0.0667175
-0.0354004,0.0657104
-0.0268555,0.0656799
-0.0335693,0.0654419
-0.0396729,0.064856
0.00976563,0.0641235
0.0531006,0.0645081
0.0469971,0.0643677
0.0701904,0.0640869
0.0170898,0.0632019
0.0762939,0.0627869
-0.0549316,0.0627686
-0.0305176,0.0629395
-0.0921631,0.0620483
0.0115967,0.0620911
-0.0231934,0.0622864
-0.0299072,0.0624451
-0.057373,0.0616882
-0.010376,0.060907
0.00488281,0.0607422
0.0286865,0.0608765
-0.0146484,0.0605469
-0.10437,0.0609619
-0.228882,0.0624329
0.0549316,0.0617737
0.0463867,0.0619446
-0.111694,0.0622192
0.0396729,0.0604126
0.0445557,0.0590149
0.126343,0.0600891
0.0769043,0.0594666
0.0982666,0.0595093
0.10498,0.0605469
0.130615,0.061615
0.0860596,0.0620178
-0.0158691,0.0611572
0.022583,0.0605713
-0.0140381,0.0594727
0.098877,0.0584229
-0.0360107,0.0585449
-0.103149,0.0586792
-0.0262451,0.0587708
-0.0378418,0.0584961
-0.0756836,0.058429
-0.0616455,0.0589355
-0.00244141,0.0587219
0.114136,0.0594971
-0.0561523,0.0595703
0.0384521,0.0593811
0.0598145,0.05979
0.0274658,0.0597839
-0.126343,0.0602966
-0.0335693,0.0592834
-0.00732422,0.0592651
-0.0946045,0.0602051
-0.000610352,0.0597656
-0.0262451,0.0595703
-0.0231934,0.0588074
0.0427246,0.0592041
0,0.0591614
-0.0109863,0.0590759
-0.0982666,0.0597656
-0.15564,0.0609741
0.0830078,0.0608093
-0.0286865,0.0598267
-0.0793457,0.0596069
-0.0152588,0.0580444
0.0732422,0.058374
0.148315,0.0589539
0.17395,0.0602173
-0.000610352,0.0596313
0.022583,0.0596863
0.0524902,0.0587036
0.10498,0.0582642
0.0524902,0.0583923
-0.153198,0.0594482
-0.257568,0.0601563
0.163574,0.0617371
0.0268555,0.0615662
-0.0921631,0.0615662
-0.0543213,0.0614075
-0.0244141,0.0613647
0.00549316,0.0607483
0.0598145,0.0608032
0.0164795,0.0598206
-0.00854492,0.0583923
-0.0396729,0.0582031
0.0762939,0.0588867
0.0317383,0.0591492
-0.106201,0.0602051
0.0238037,0.0602417
-0.00976563,0.0601318
0.0231934,0.0593079
-0.0286865,0.0591125
-0.0817871,0.0596252
-0.0427246,0.0599548
0.0250244,0.0599365
-0.0579834,0.0602295
-0.0939941,0.0606262
0.043335,0.0591248
0.0701904,0.0588257
0.0567627,0.0590393
0.0775146,0.0595459
-0.00610352,0.0592712
0.0476074,0.0593506
0.0836182,0.0600891
-0.078125,0.0603394
-0.0543213,0.0604126
-0.152588,0.0612366
0.0323486,0.0613892
-0.0128174,0.0607544
-0.0543213,0.0607483
-0.0262451,0.0607056
0.03479,0.0601318
0.0567627,0.0605835
0.0695801,0.0610474
0.0311279,0.0610596
0.0335693,0.0608215
0.0646973,0.0613647
0.00671387,0.0613831
-0.0994873,0.0620911
0.00427246,0.0619873
0.0396729,0.0613403
0.0500488,0.059552
-0.113525,0.0601379
-0.0268555,0.0599426
-0.00366211,0.0588623
-0.0292969,0.0587585
0.032959,0.0586426
0.0708008,0.0580872
-0.0421143,0.0577393
-0.17395,0.0584961
0.0146484,0.0575928
0.0201416,0.056488
-0.0140381,0.0557678
-0.0891113,0.0565002
-0.0549316,0.0568237
0.0115967,0.0567993
0.022583,0.0560364
0.0524902,0.0562012
0.0354004,0.0555237
0.0482178,0.0557434
0.0506592,0.0558716
0.0299072,0.0554138
-0.0311279,0.0551086
0.0622559,0.0557068
0.000610352,0.0545715
-0.0488281,0.0544983
-0.0366211,0.05448
0.00549316,0.0539368
0.0115967,0.0537781
-0.0372314,0.052887
-0.0177002,0.0527283
0.0256348,0.0529114
0.0323486,0.0522888
0.0561523,0.0528442
0.0897217,0.053479
0.0506592,0.0537537
0.0396729,0.0537231
-0.181885,0.055542
0.0787354,0.0562195
-0.00549316,0.0552917
-0.0561523,0.0542969
-0.0805664,0.0542725
-0.0604248,0.0545898
-0.0384521,0.0541809
0.00183105,0.0540466
0.0152588,0.0534668
0.0714111,0.0526978
-0.0146484,0.0511047
-0.153198,0.0526306
-0.132446,0.0537292
0.0115967,0.0533203
0.0549316,0.0528198
-0.078125,0.0530762
-0.0292969,0.0518372
0.0189209,0.0494507
0.0817871,0.0486328
0.0872803,0.0492371
0.113525,0.0494507
0.0872803,0.0497803
0.0463867,0.05
0.0866699,0.0508118
0.0793457,0.0510071
0.0177002,0.0510193
-0.0250244,0.0511841
0.00549316,0.0508423
-0.0512695,0.050592
0.0512695,0.0507874
-0.0671387,0.0503967
-0.0695801,0.0508545
-0.0415039,0.0511719
-0.0402832,0.0513428
-0.0402832,0.0514587
-0.0170898,0.0508118
0.0543213,0.0509277
0.0396729,0.0510742
-0.214233,0.0526367
-0.0335693,0.0520325
0.136108,0.0529602
0.0164795,0.0524231
-0.0732422,0.0525879
-0.0164795,0.0519775
0.0915527,0.052832
0.0152588,0.0525085
-0.0463867,0.0521362
0.0646973,0.052002
0.0219727,0.0516785
-0.0494385,0.050647
-0.0799561,0.051123
-0.0866699,0.0518616
-0.0866699,0.0521851
-0.0445557,0.0523682
0.0653076,0.0526733
0.00793457,0.0521851
-0.00610352,0.0515503
0.0537109,0.0517761
0.103149,0.0524719
0.10498,0.0528748
0.123901,0.0540466
-0.0366211,0.053418
0.0384521,0.0537598
0.0866699,0.0542297
-0.088501,0.0546143
-0.00549316,0.0535339
0.0360107,0.0536255
-0.0799561,0.0543884
-0.0256348,0.0543518
-0.0244141,0.0542664
-0.00488281,0.0536072
0.00732422,0.0532593
0.00976563,0.0516174
-0.0268555,0.0517395
-0.0390625,0.0519287
-0.020752,0.0519958
0.00183105,0.051123
0.0622559,0.0511963
-0.0274658,0.051355
0.020752,0.0513367
-0.0323486,0.0511353
-0.0628662,0.0514099
0.0476074,0.0514038
0.0183105,0.0510803
-0.00305176,0.0508118
-0.0146484,0.050647
-0.03479,0.0503723
-0.0372314,0.0507385
-0.00549316,0.0503052
0.0378418,0.0503174
0.0366211,0.0506287
-0.0238037,0.0507507
0.0134277,0.0505127
0.010376,0.0504395
-0.00366211,0.0502197
-0.0506592,0.0504028
0.0598145,0.0504395
0.0274658,0.0498169
0.020752,0.0495178
0.0817871,0.049939
0.0427246,0.0485474
-0.0793457,0.0485535
-0.012207,0.0486206
0.0195313,0.0482544
-0.0476074,0.0479248
-0.109253,0.0484131
-0.105591,0.0490845
-0.0183105,0.0492493
0.0769043,0.0498657
-0.115356,0.0503052
0.0170898,0.0503296
0.0854492,0.0496521
0.0701904,0.0490295
0.0579834,0.0494934
0.0115967,0.0490601
-0.101929,0.0492981
0.0610352,0.0496155
0.0378418,0.0498047
-0.010376,0.0490906
0.0164795,0.0483826
0.0561523,0.0478088
0.0292969,0.047229
0.0457764,0.0472229
-0.0170898,0.0465271
-0.0689697,0.0464233
0.00427246,0.0462891
-0.00305176,0.0460693
-0.0299072,0.0463135
-0.0952148,0.0467529
-0.0292969,0.0465332
-0.0946045,0.0468079
0.0622559,0.0467346
0.0366211,0.0466858
-0.0372314,0.0466553
0.00671387,0.0463196
0.0158691,0.0463074
0.0622559,0.0463867
0.0524902,0.0465149
-0.00976563,0.0444702
-0.0732422,0.0448669
-0.0317383,0.0438232
0.0415039,0.0440735
0.0195313,0.0435364
-0.0567627,0.0439392
-0.0158691,0.0431824
0.0689697,0.0437195
0.00610352,0.0433167
0.0476074,0.0431458
0.0256348,0.0431824
-0.0421143,0.0431091
0.0201416,0.042511
-0.0280762,0.041925
0.0482178,0.0415405
-0.03479,0.0414429
-0.0238037,0.0410278
0.0177002,0.0411255
0.0531006,0.0415955
0.0854492,0.0419128
0.108032,0.0419617
0.0183105,0.041095
-0.136719,0.0412231
-0.0305176,0.0411621
0.0787354,0.0415649
-0.0134277,0.0408325
-0.057373,0.0405212
-0.0744629,0.0412109
-0.0463867,0.0413147
-0.0109863,0.040625
-0.00976563,0.0404663
-0.0152588,0.0403748
-0.0488281,0.0408142
-0.0213623,0.0409546
0.0482178,0.0413391
0.057373,0.0416443
-0.0286865,0.0415405
-0.131836,0.0426514
0.0726318,0.0433594
0.0622559,0.0433594
0.0665283,0.04375
0.0762939,0.0443054
-0.0286865,0.0442688
-0.055542,0.0441956
-0.0610352,0.0443298
-0.0506592,0.0446533
0.145264,0.0460754
0.0653076,0.046582
-0.0909424,0.0471436
-0.0512695,0.0472839
-0.0476074,0.0477051
0.0805664,0.0481323
0.0708008,0.0484741
0.012207,0.0483582
-0.022583,0.0484497
-0.0146484,0.0484924
-0.043335,0.0488892
0.0262451,0.048645
0.0195313,0.0482422
0.0537109,0.0485046
-0.00305176,0.0483276
0.0299072,0.0478088
0.0152588,0.0475342
-0.0158691,0.0468994
0.0213623,0.046991
0.0305176,0.0471008
-0.00915527,0.0467163
-0.0128174,0.045752
0.0140381,0.0448364
0.022583,0.0448792
-0.0714111,0.0448242
-0.0189209,0.0438599
0.0213623,0.0439026
-0.0213623,0.0432617
-0.178833,0.0443481
0.0299072,0.0440674
0.00793457,0.0440308
-0.0585938,0.0435974
-0.0299072,0.0432861
0.0323486,0.0432312
0.0592041,0.0437195
0.0543213,0.0440979
0.0720215,0.0442566
0.00793457,0.044043
0.0231934,0.0438171
0.0177002,0.0438232
-0.00976563,0.0432312
0.00610352,0.0432495
-0.0195313,0.0434143
-0.010376,0.043219
-0.00915527,0.0423584
-0.000610352,0.0420715
0.00244141,0.0411499
0.0378418,0.0409058
-0.000610352,0.0405457
-0.0378418,0.0405518
-0.0274658,0.0407593
0.00305176,0.0406311
-0.00183105,0.0400269
-0.0402832,0.0399048
0.0250244,0.0400574
-0.0616455,0.0399414
-0.0585938,0.04021
-0.212402,0.0419189
0.128784,0.0430115
0.113525,0.0435791
-0.055542,0.0439758
0.00183105,0.0433044
0.0842285,0.0440857
0.0866699,0.0444763
0.0634766,0.0448547
0.0585938,0.0450195
0.0604248,0.0454224
0.03479,0.0454895
-0.0231934,0.0452393
-0.0317383,0.0452087
-0.0354004,0.0453247
0.00793457,0.0452271
-0.0115967,0.044812
-0.0152588,0.0441101
0.00915527,0.0431213
0.0238037,0.0431763
0.00915527,0.0419006
-0.0531006,0.0421265
0.012207,0.0414612
0.0201416,0.0415283
-0.0311279,0.0412659
-0.0860596,0.0413818
-0.0537109,0.0414551
0.00915527,0.0414368
-0.0494385,0.0418335
-0.00732422,0.0417542
-0.0195313,0.0414612
0.00671387,0.0413147
0.0567627,0.0414001
0.0909424,0.0417358
0.00976563,0.0415466
0.0512695,0.040741
0.0848389,0.040863
-0.0256348,0.0404968
-0.132446,0.041156
0.0415039,0.0408081
0.0292969,0.0408142
-0.0848389,0.0411072
-0.0518799,0.0410156
-0.0268555,0.0407776
0.00488281,0.0393738
0.0750732,0.0394714
0.0653076,0.0392151
0.0274658,0.0389771
-0.144043,0.0399414
0.020752,0.0393433
0.100098,0.0396362
-0.126343,0.0407776
0.00183105,0.0405701
-0.0616455,0.04104
-0.0396729,0.0410034
0.00793457,0.0408203
-0.0292969,0.040918
0.0341797,0.0407227
0.0640869,0.041333
-0.00610352,0.041095
0.0299072,0.0412415
0.0280762,0.0413635
0.00671387,0.041217
0.020752,0.0411194
0.03479,0.0413757
-0.00488281,0.0412964
-0.108643,0.0422424
0.0335693,0.0423523
0.0439453,0.0420776
-0.0421143,0.0423096
0.03479,0.0424438
-0.0201416,0.0424316
0.0170898,0.0408142
0.0750732,0.0412659
-0.0140381,0.0413269
0.012207,0.040863
0.00915527,0.0406555
-0.0238037,0.0405701
-0.0579834,0.0405579
-0.0378418,0.0403931
-0.0561523,0.0402344
0.0756836,0.0409119
-0.0195313,0.0408752
-0.0970459,0.0416687
0.00427246,0.0416138
0.0701904,0.0422546
0.0585938,0.0426453
0.0128174,0.0426697
0.00610352,0.0426392
0.0177002,0.0428101
0.0402832,0.0431885
0.0408936,0.043219
0.0012207,0.0432251
0.0219727,0.0430664
-0.0170898,0.0429626
-0.000610352,0.0429382
0.00976563,0.0430176
0.0585938,0.0432007
0.0402832,0.0433533
0.0109863,0.0428467
-0.0238037,0.0424988
0.0305176,0.0406799
-0.0274658,0.0396667
-0.0274658,0.0388062
-0.0463867,0.0387146
-0.012207,0.0388184
-0.0598145,0.0385742
-0.0909424,0.0386169
-0.0640869,0.038623
-0.0146484,0.0381836
-0.0384521,0.0379639
0.0183105,0.0377991
-0.00854492,0.0376526
-0.0244141,0.0375793
-0.00305176,0.0372559
0.0109863,0.0372864
0.0616455,0.0377869
0.0994873,0.0386292
0.12146,0.0397522
0.0561523,0.0400757
-0.00305176,0.0400146
-0.0720215,0.0402039
0.0354004,0.0404358
-0.135498,0.0415894
0.032959,0.0416077
-0.0640869,0.0413879
-0.0958252,0.0418091
-0.0897217,0.0426147
0.0189209,0.0423096
0.0500488,0.0427368
0.0323486,0.042865
0.0189209,0.0429871
0.012207,0.0425415
-0.0384521,0.0420166
-0.0292969,0.0422119
-0.0299072,0.0419983
-0.00488281,0.0411987
0.0183105,0.0411255
0.010376,0.0399048
0.0195313,0.0396851
0.107422,0.0404663
0.0549316,0.0401672
-0.055542,0.0402039
0.0506592,0.0404419
0.0518799,0.0409119
-0.0531006,0.0406921
-0.0488281,0.0405273
-0.0189209,0.0404419
-0.0164795,0.0391663
-0.00671387,0.0390259
0.0408936,0.0384338
0.0701904,0.0378723
-0.0213623,0.0380676
-0.0518799,0.03797
-0.0354004,0.0379272
0.0628662,0.0384766
0.00671387,0.0382507
-0.00671387,0.0379761
-0.0750732,0.0380859
0.0134277,0.0381592
0.0592041,0.0384521
0.0524902,0.0386963
-0.0482178,0.0391113
-0.0463867,0.0393677
0.100708,0.0400269
0.0561523,0.0405396
-0.00427246,0.0394958
0.0177002,0.0393372
-0.200806,0.0409058
-0.0286865,0.0407715
0.0842285,0.0412659
0.00366211,0.0411011
-0.115967,0.0420898
-0.0897217,0.0422363
0.0335693,0.0424316
0.0152588,0.0424622
0.0213623,0.0425842
0.0506592,0.0428528
0.0427246,0.0427002
0.0427246,0.042749
0.032959,0.0425171
0.0128174,0.0418884
0.00610352,0.0417542
-0.00427246,0.0408264
0.0457764,0.0412415
0.0537109,0.0410767
-0.0262451,0.0407532
-0.135498,0.04198
0.078125,0.0427002
-0.00732422,0.0425964
-0.0231934,0.0424255
-0.0769043,0.0427856
-0.0866699,0.0436401
-0.012207,0.0435425
-0.0427246,0.0437988
0.0463867,0.0442566
-0.0799561,0.0449585
0.0189209,0.0445618
0.0732422,0.0448914
0.114746,0.045929
-0.0177002,0.0458679
0.0592041,0.0461548
0.00183105,0.0458984
0.0366211,0.04599
0.0634766,0.0461609
-0.0262451,0.0463013
-0.0354004,0.0460571
-0.0750732,0.0458984
-0.0189209,0.0454468
-0.00732422,0.0453735
0.0183105,0.0451721
-0.0109863,0.0450989
0.0720215,0.0457336
-0.0134277,0.0456238
0.00366211,0.0456299
0.0250244,0.0457703
0.0280762,0.0454346
-0.0335693,0.0447754
0.0238037,0.0437988
0.0128174,0.0433655
-0.0286865,0.0436218
-0.00671387,0.0429688
0.0384521,0.0429993
-0.0311279,0.0419556
-0.0366211,0.0419922
0.0512695,0.041864
-0.067749,0.0415833
0.00488281,0.0407349
-0.0878906,0.0414246
0.00305176,0.0409546
0.0585938,0.041217
-0.0299072,0.0413269
-0.0244141,0.041449
0.0115967,0.0411804
0.0366211,0.0412537
0.0518799,0.0414734
0.0140381,0.0415649
-0.012207,0.0415039
0.0274658,0.0416748
0.00854492,0.0415649
0.0750732,0.0412415
0.0640869,0.041333
-0.0982666,0.0417603
0.0115967,0.0413696
0.00305176,0.0408813
0.00610352,0.0404114
-0.032959,0.0402527
-0.0421143,0.0404846
-0.0311279,0.0406311
-0.00610352,0.040625
0.012207,0.0403381
-0.0140381,0.0397766
-0.0756836,0.0403198
0.0177002,0.039978
0.000610352,0.0396301
-0.00549316,0.0390564
-0.0256348,0.0392456
0.00671387,0.0392456
0.0286865,0.0387817
0.00976563,0.0387451
0.0183105,0.0383362
0.102539,0.0388367
0.0671387,0.0390259
-0.090332,0.0394653
-0.00549316,0.0385132
0.0299072,0.0382507
0.0665283,0.0388733
-0.043335,0.0391296
-0.0476074,0.0375977
0.0012207,0.037323
0.159912,0.0380798
-0.00488281,0.038092
0.00549316,0.0369873
-0.043335,0.0365234
-0.0244141,0.0364319
-0.0292969,0.0365723
-0.0775146,0.0371338
-0.0952148,0.0375793
-0.032959,0.0374817
-0.0610352,0.0376648
-0.0152588,0.0374878
0.00976563,0.0374573
0.0476074,0.0378723
0.010376,0.0379333
0.0750732,0.0382263
0.10498,0.038739
0.0457764,0.0389343
-0.0860596,0.0384399
0.00305176,0.0376892
-0.0256348,0.0378723
-0.0775146,0.0384155
-0.0500488,0.038147
-0.134277,0.038623
-0.0335693,0.0388367
0.0140381,0.0385498
-0.0622559,0.0387085
0.0170898,0.0380798
0.0665283,0.0385559
0.0354004,0.0381775
0.0909424,0.0379395
0.0708008,0.0384705
0.0384521,0.0382629
0.0585938,0.0388306
0.0262451,0.0387268
-0.00427246,0.0381348
-0.0213623,0.0380859
-0.00915527,0.0378235
0.0390625,0.0374634
0.0292969,0.0375671
0.0250244,0.0377441
-0.0219727,0.0377808
-0.0604248,0.0382751
0.090332,0.0384583
0.0146484,0.0384705
-0.00366211,0.0384705
-0.0598145,0.0388184
-0.0244141,0.0387817
0.00915527,0.0385376
0.000610352,0.0383057
-0.0714111,0.0388916
-0.0274658,0.0388794
0.0372314,0.0391846
-0.03479,0.0391479
0.0445557,0.0392822
0,0.038916
0.00732422,0.0384766
-0.0262451,0.0380615
0.0250244,0.0382629
0.0219727,0.0376038
0.0469971,0.0380432
0.0427246,0.0378845
-0.0811768,0.0383972
0.0128174,0.0382813
0.0158691,0.038324
0.0311279,0.038269
0.0634766,0.038385
0.0524902,0.0387695
0.0842285,0.0394897
-0.0518799,0.0397339
-0.101318,0.0406616
0.0360107,0.040271
0.0244141,0.0398743
-0.0323486,0.0392151
-0.0579834,0.039679
-0.0701904,0.0403503
-0.0323486,0.0406128
0.00915527,0.0403748
0.0244141,0.0401978
0.0238037,0.0401245
0.00427246,0.0401062
0.057373,0.0405579
0.00671387,0.0404846
0.0189209,0.039917
0.0250244,0.0399902
0.0964355,0.0409485
0.0653076,0.0415466
0.0360107,0.0416504
-0.00793457,0.0416626
-0.0012207,0.0413879
0.0311279,0.0416016
0.012207,0.0415405
-0.0195313,0.0407104
-0.0317383,0.0403564
0.0323486,0.0397766
-0.0646973,0.0403687
-0.0537109,0.0406067
0.0134277,0.0400757
0.045166,0.040094
-0.022583,0.0398437
-0.00305176,0.0398621
-0.055542,0.0388184
-0.0115967,0.0388855
-0.00305176,0.0388611
0.0231934,0.0386597
0.0170898,0.0385864
-0.0933838,0.0392273
-0.0012207,0.0384644
0.0567627,0.0380798
0.0396729,0.038147
0.0305176,0.0378418
0.0244141,0.0379333
-0.00854492,0.0379211
0.0512695,0.0379578
0.129395,0.0391479
0.0354004,0.0387512
-0.0720215,0.0384216
0.0219727,0.0381836
-0.0378418,0.0377014
-0.0738525,0.0384094
-0.0335693,0.0384888
-0.0256348,0.03797
-0.0512695,0.0379822
-0.0457764,0.0370972
-0.0189209,0.0369507
-0.00854492,0.0368958
-0.00183105,0.0362915
-0.00549316,0.0361755
-0.0128174,0.0356384
-0.00488281,0.0353333
-0.0140381,0.0345642
-0.0457764,0.034314
-0.0543213,0.0344727
-0.0183105,0.0340698
0.00732422,0.0338806
0.0012207,0.0338501
-0.0134277,0.0337708
-0.0140381,0.0338196
0.0189209,0.0336182
0.032959,0.0336548
0.0445557,0.0338501
0.0158691,0.0337891
0.00549316,0.0332397
-0.00366211,0.032373
0.0201416,0.032428
0.0366211,0.0327576
0.0274658,0.0324341
0.0177002,0.0323669
0.00854492,0.0323608
-0.0622559,0.0329773
0.0152588,0.0324158
0.0146484,0.0322876
-0.0250244,0.0321655
-0.0469971,0.0322876
-0.0280762,0.0321228
-0.0250244,0.032373
0.00305176,0.0323303
0.00366211,0.0321045
0.000610352,0.0318604
0,0.0316406
0.010376,0.0312744
0.0195313,0.0310425
0.0390625,0.0306213
0.0299072,0.0307922
0.00976563,0.0307312
-0.0195313,0.0306152
0.0146484,0.030127
0.0158691,0.0297607
0.00793457,0.0289978
-0.00549316,0.0285339
-0.0201416,0.0277222
-0.00732422,0.0274353
-0.0146484,0.0273376
0.00427246,0.0270569
0.00488281,0.0265259
0.0146484,0.0259705
0.0195313,0.0258423
0.0335693,0.0260864
0.0189209,0.0260315
0.0323486,0.0261169
0.0152588,0.0262268
0.0567627,0.0262207
0.00610352,0.0262146
0.0134277,0.0261597
0.0262451,0.0261719
0.0152588,0.0253601
-0.00671387,0.0247742
0.0531006,0.0249451
0.0604248,0.02547
-0.0183105,0.0256409
0.0714111,0.0260437
0.0195313,0.0261169
0.0170898,0.0260925
0.0439453,0.0262146
-0.0628662,0.0265198
-0.0592041,0.0264648
-0.0231934,0.0261597
-0.0567627,0.026593
-0.057373,0.0267151
-0.0439453,0.0269287
-0.0360107,0.0272583
-0.0189209,0.0268921
-0.000610352,0.0267822
0.0195313,0.026947
-0.0274658,0.0269897
0.00549316,0.0268738
0.0219727,0.0261597
-0.00366211,0.0261841
0.000610352,0.0256226
0,0.0252258
0.0256348,0.025177
0.0427246,0.0253601
-0.0262451,0.0255371
-0.00366211,0.025061
0.0109863,0.023877
0.0305176,0.0238281
-0.0390625,0.0234985
-0.0158691,0.0234375
-0.00427246,0.0231018
-0.00732422,0.0224365
0.00915527,0.0221924
0.0177002,0.022113
0.0262451,0.0218628
0.0286865,0.0216919
0.0421143,0.0219238
0.0408936,0.0222473
0.0152588,0.0223816
0.0238037,0.0225647
0.000610352,0.0224426
0.0134277,0.0225281
-0.00366211,0.0224243
0.00671387,0.0220337
0.00427246,0.0215332
-0.0262451,0.0216125
0.022583,0.0217651
0.0683594,0.0224365
0.022583,0.0225281
0.00183105,0.022406
-0.00610352,0.0222778
0.0341797,0.02229
0.0439453,0.0222839
0.03479,0.0224731
-0.0671387,0.0230896
-0.0360107,0.0234131
-0.00427246,0.0232544
-0.00488281,0.022937
-0.0280762,0.0229431
-0.0469971,0.0232361
-0.0268555,0.0234192
-0.0262451,0.0230591
-0.0213623,0.0231201
-0.00793457,0.023053
-0.0152588,0.0229553
-0.0164795,0.0226501
-0.0170898,0.0225403
0.000610352,0.0222961
0.00183105,0.0222839
0.012207,0.0223694
-0.00244141,0.0223877
0.0195313,0.022583
0.0274658,0.0227539
0.0280762,0.0228394
0.0213623,0.0226624
-0.0134277,0.0224976
0.00183105,0.0224182
0.0183105,0.022406
0.00427246,0.0223022
0.0115967,0.0222595
0.00488281,0.022229
0.0140381,0.0223145
0.010376,0.0222168
0.0323486,0.022467
0.00671387,0.0223877
-0.0109863,0.0224548
0.0219727,0.0226257
-0.00549316,0.0225342
-0.0250244,0.0225891
-0.0195313,0.0224487
-0.00427246,0.0223022
-0.00366211,0.0220154
0.000610352,0.0218689
0,0.0213013
-0.00366211,0.0212769
0.010376,0.0212463
0.00976563,0.0210815
0.00915527,0.0210205
0.0128174,0.0210815
0.0128174,0.0206787
0.00366211,0.0201111
0.0109863,0.0200378
0.0115967,0.0194397
0.00671387,0.0193115
0.00549316,0.0191956
0.00244141,0.0187805
0.032959,0.0184814
-0.00671387,0.0179565
-0.0109863,0.0178345
-0.00244141,0.0172913
0.0317383,0.0170349
0.0262451,0.0168579
-0.00671387,0.0165649
-0.0341797,0.0167175
-0.0299072,0.0170105
0.00366211,0.0168518
0.00915527,0.0166687
-0.0183105,0.0167969
-0.0238037,0.0168152
-0.0109863,0.0168884
-0.0244141,0.0171265
0.00244141,0.0171509
-0.00732422,0.0169678
-0.00793457,0.0166199
-0.0140381,0.0164978
-0.0109863,0.016571
-0.00854492,0.0165466
-0.00427246,0.0162842
-0.00244141,0.015918
0.0164795,0.0159241
0.00732422,0.0159546
-0.00244141,0.0159058
0.0201416,0.0160156
0.0311279,0.0161499
0.020752,0.016095
0.0292969,0.0161011
0.0164795,0.0158447
-0.020752,0.0156433
0.0134277,0.015625
0.0201416,0.0155884
0.00305176,0.0156128
-0.0372314,0.0158508
-0.0128174,0.0159424
0.0115967,0.0159912
-0.0195313,0.0161438
-0.00183105,0.0158997
0.0158691,0.0158325
0.0109863,0.0152588
0.0213623,0.0152466
0.0292969,0.0155212
0.0109863,0.0155701
0.0286865,0.0155151
0.0262451,0.0153381
0.043335,0.0154236
0.0231934,0.0149841
0.00671387,0.0146912
0.0189209,0.0148376
0.0128174,0.014917
-0.0213623,0.0148499
-0.022583,0.0146057
-0.00244141,0.0143616
-0.0183105,0.0142822
-0.0250244,0.0143188
-0.0256348,0.0144958
-0.0140381,0.0144836
0.0140381,0.0144592
-0.00549316,0.0143433
-0.00671387,0.0144043
-0.00488281,0.0144348
0.00671387,0.0143799
-0.00244141,0.0143799
0.00671387,0.0142517
0.00854492,0.0140625
0.00427246,0.0138245
0.0170898,0.0137817
0.00732422,0.0137207
-0.00427246,0.0137451
0.0012207,0.0135742
0.032959,0.0138611
-0.000610352,0.0137512
0.0305176,0.0140076
-0.0183105,0.0140503
-0.0427246,0.0143738
0.00671387,0.0141174
0.00976563,0.0141479
0.00244141,0.0140625
-0.0183105,0.0140259
-0.0164795,0.0141357
0.00305176,0.013916
-0.0128174,0.0138489
0.0244141,0.0140503
0.010376,0.0141174
0.0286865,0.0143982
0.010376,0.014502
0.0140381,0.0146057
0.0219727,0.0147217
0.0140381,0.0147644
0.0262451,0.0149353
0.0115967,0.0149231
0.0219727,0.0150146
-0.000610352,0.0149841
0.00366211,0.0149109
0.00488281,0.0148437
-0.0134277,0.0149109
-0.00488281,0.0149048
-0.000610352,0.0148865
-0.0164795,0.0147217
0.00793457,0.0147339
-0.00732422,0.0146973
0.000610352,0.014679
0.00854492,0.014447
0.00610352,0.0142456
-0.0183105,0.0143616
0.00244141,0.0140442
-0.00549316,0.0138
-0.0140381,0.0139038
0.0189209,0.0140015
0.032959,0.0141479
-0.00549316,0.0139648
0,0.013855
-0.0012207,0.013623
0.00732422,0.0136719
0.010376,0.0137024
-0.00488281,0.0136719
-0.00244141,0.0135559
0.00915527,0.0135376
0.0244141,0.0136963
0.00244141,0.013678
-0.0128174,0.0137817
-0.00305176,0.0136475
0.0158691,0.0137329
0.00915527,0.0138
-0.045166,0.0140503
-0.0256348,0.0139954
-0.010376,0.0138916
-0.0305176,0.0139038
0,0.013739
-0.000610352,0.0135376
-0.0012207,0.0134155
0.0219727,0.0134338
0.0012207,0.0134155
-0.00549316,0.0130981
-0.0146484,0.0131165
0.00244141,0.0130249
0.00610352,0.0128906
-0.00183105,0.0128906
-0.022583,0.0129578
0.00183105,0.0128662
0.00671387,0.0127197
0.00915527,0.0125183
0.00244141,0.0124329
0.0164795,0.0123108
0.022583,0.0122742
0.0256348,0.0120972
-0.00183105,0.0118835
0.00793457,0.0118958
0.0262451,0.011969
0.00427246,0.0118835
0.0219727,0.0118896
0.000610352,0.0116699
-0.0170898,0.0118164
0.010376,0.0117371
0.00305176,0.0115173
0.0146484,0.0114075
0.0170898,0.011438
-0.00610352,0.0113586
-0.0213623,0.0115173
-0.00976563,0.0115479
0.00305176,0.0115295
0.00244141,0.0114868
-0.0140381,0.0116028
0.00244141,0.0115601
0.00549316,0.0115295
-0.00244141,0.0115112
0.043335,0.0117737
0.065918,0.0123596
0.0238037,0.0125549
0.0366211,0.0129089
0.00427246,0.0126221
-0.022583,0.0128418
0.0164795,0.0127014
0.00244141,0.0125427
-0.0256348,0.0123718
-0.0219727,0.0125244
-0.0421143,0.0128479
-0.0231934,0.0130554
-0.0268555,0.0131409
0.000610352,0.0129822
0.00732422,0.0130249
-0.0360107,0.0132568
0.000610352,0.0130188
0.0201416,0.0131165
-0.0109863,0.0129395
-0.0128174,0.0129639
0.00427246,0.0128662
0.022583,0.0128723
-0.0146484,0.0128784
-0.0158691,0.0127747
-0.00488281,0.0127075
-0.0170898,0.0126587
-0.0189209,0.0128418
-0.00671387,0.0128723
-0.00732422,0.0128967
-0.00610352,0.0128235
0.000610352,0.0127808
0.012207,0.0128967
0.00366211,0.0127686
0.0177002,0.0128662
-0.0012207,0.0128052
0.0231934,0.013031
0.00488281,0.0129944
0.0134277,0.0130676
-0.010376,0.0129883
-0.00732422,0.0130371
0.0201416,0.0131836
0.00427246,0.0130859
0.00671387,0.0129639
0.043335,0.0130676
0.0500488,0.0135132
0.0463867,0.0139771
0.03479,0.0143127
0.022583,0.0144653
0.0415039,0.0147766
0.032959,0.0150574
0.0299072,0.015332
0.0164795,0.0154053
-0.0823975,0.0159851
-0.0482178,0.0164429
0.00915527,0.0164063
-0.0177002,0.0165527
-0.0286865,0.0166809
-0.0421143,0.0170105
-0.012207,0.0166809
-0.00793457,0.0165039
0.00183105,0.0164185
0.0146484,0.0162598
-0.0158691,0.0164185
0.00488281,0.0164612
-0.00854492,0.0165344
-0.0183105,0.0164978
-0.0177002,0.0166626
-0.0140381,0.016748
-0.0109863,0.0167114
-0.00732422,0.0167603
-0.0140381,0.0168396
0.00244141,0.0168457
-0.0012207,0.0166321
-0.000610352,0.0166199
0.0109863,0.0166626
0.0128174,0.0166992
0.000610352,0.0166809
0.0177002,0.0166931
0.0299072,0.0167664
0.0311279,0.0168213
0.00244141,0.0168274
0.00366211,0.0167847
0.00366211,0.0165588
0.0012207,0.0165283
-0.00244141,0.016333
-0.00671387,0.016394
-0.0250244,0.0164734
-0.0134277,0.0165039
0.00183105,0.0164917
0.0274658,0.0166199
0.00854492,0.0165344
0.0262451,0.0167358
0.0201416,0.0167236
0.0183105,0.0168091
-0.0152588,0.0169312
0.00854492,0.0169922
0.0231934,0.0170837
0.0183105,0.0172424
-0.0268555,0.0174561
-0.0286865,0.0177185
-0.00976563,0.0173828
0.00732422,0.0167969
-0.022583,0.0167847
0.0115967,0.0165344
0.0286865,0.0167786
0.0219727,0.0167725
0.0164795,0.0167725
-0.0170898,0.0169189
-0.022583,0.0168884
0.0439453,0.0171082
-0.00549316,0.0167419
-0.0183105,0.0166931
-0.0354004,0.0167786
-0.0439453,0.0172119
-0.0238037,0.0173767
-0.00610352,0.0170776
-0.000610352,0.0170776
-0.00854492,0.0169617
-0.0146484,0.0169983
0.00244141,0.0168945
-0.00366211,0.0168884
0.0189209,0.0168518
0.0201416,0.0169067
-0.00793457,0.0168274
0.00671387,0.0168457
0.0366211,0.017041
0.0177002,0.0170288
0.00854492,0.0170471
-0.0109863,0.0170837
0.00610352,0.0170837
0.00366211,0.0171143
0.010376,0.0170959
0.000610352,0.0170654
-0.0201416,0.0170898
-0.00183105,0.0170959
0.0183105,0.0170471
0.0201416,0.0171997
0.00183105,0.0170837
0.012207,0.0171021
-0.0201416,0.0172302
-0.0134277,0.0171631
0.00427246,0.0171631
-0.00610352,0.017157
-0.0323486,0.0170471
-0.032959,0.0168762
-0.0164795,0.0165771
0.00854492,0.0163147
0.0177002,0.0162659
0,0.0158508
0.00610352,0.0155823
0.0128174,0.0154114
0.00366211,0.0152832
0.0177002,0.0146362
0.0506592,0.0146606
0.00366211,0.0146057
-0.0469971,0.0148987
0.00549316,0.0146667
0,0.0142456
0.0518799,0.0146423
0.0714111,0.0152771
-0.0878906,0.0161377
-0.0012207,0.0160034
0.0146484,0.0159912
0.000610352,0.0159485
0.0012207,0.0158752
-0.00305176,0.0157227
-0.00610352,0.0156067
-0.0256348,0.0157227
-0.0146484,0.0157593
0.00366211,0.0157227
-0.010376,0.015686
-0.0146484,0.0158081
-0.0012207,0.0158081
0.00183105,0.0158203
-0.00183105,0.0157288
-0.00549316,0.0156555
0.0115967,0.0157654
0.00854492,0.0156738
-0.00488281,0.0154236
0.00427246,0.015155
0.0146484,0.0152771
0.00427246,0.0152832
-0.0158691,0.0154053
-0.0268555,0.0156616
-0.012207,0.0157593
-0.00854492,0.0157776
0.010376,0.0156311
0.0231934,0.0157288
0.0384521,0.016095
0.0012207,0.0158325
0.0244141,0.0159912
0.043335,0.0161621
0.022583,0.0161865
-0.00305176,0.0160339
-0.020752,0.0160889
-0.0231934,0.0162354
-0.0427246,0.0164307
-0.0256348,0.0165039
-0.0152588,0.0163879
-0.0146484,0.0162476
0.00427246,0.0161926
0.0134277,0.0162537
0.0360107,0.0163879
0.0268555,0.0165405
0.0152588,0.0164063
0.0201416,0.0163879
0.00427246,0.0162659
0.00305176,0.0161255
-0.00610352,0.0159607
0.00915527,0.0156128
-0.0158691,0.0157166
-0.0140381,0.0156738
0.00732422,0.0153931
-0.0231934,0.0151855
-0.00610352,0.0150085
-0.00976563,0.0150452
-0.0231934,0.015271
-0.00793457,0.0152649
0.0012207,0.0151306
-0.0170898,0.0152771
-0.0164795,0.0154053
-0.00366211,0.0152527
-0.00244141,0.0150757
-0.00244141,0.0150208
-0.00732422,0.0150269
-0.00244141,0.0146851
-0.00793457,0.0145874
0.010376,0.0146057
0.022583,0.0147217
0.0170898,0.0148315
0.00244141,0.0148193
-0.00732422,0.0147888
0.022583,0.0150085
0.0164795,0.0149719
-0.00732422,0.0150269
0.00183105,0.0148621
0.00793457,0.01474
0.0012207,0.0147339
-0.00366211,0.0146484
-0.00732422,0.0145203
0.0164795,0.0145508
0.00854492,0.0145935
0.0195313,0.0147278
-0.00305176,0.0144348
0.00427246,0.0141479
-0.0164795,0.0141479
0.00305176,0.014093
0.0115967,0.014032
0,0.014032
-0.0189209,0.0141602
-0.0262451,0.0142944
-0.012207,0.0143799
-0.0274658,0.0144775
-0.00244141,0.0139954
0,0.0139587
0.00427246,0.0135315
-0.00549316,0.0135315
-0.00244141,0.0135559
0.0219727,0.0132568
0.0219727,0.0127625
-0.00305176,0.0119141
0.00183105,0.0119202
0.0183105,0.0119568
0.0134277,0.012085
-0.0152588,0.0122253
-0.0219727,0.0124146
-0.00305176,0.012384
-0.0109863,0.0122375
-0.0152588,0.0122437
-0.0115967,0.012323
-0.00366211,0.0122559
0.0140381,0.0122498
0.0219727,0.0124573
0.0183105,0.0126221
0.0524902,0.0131287
0.0402832,0.0134766
-0.000610352,0.0133667
0.0170898,0.0134521
-0.000610352,0.0134094
0,0.0133667
-0.0140381,0.0133606
-0.0231934,0.0135498
-0.03479,0.013739
-0.00793457,0.0135498
-0.0164795,0.0135925
0.0280762,0.0137878
-0.00549316,0.013739
0.0183105,0.0136902
-0.00671387,0.0133728
0.00976563,0.0134583
-0.00854492,0.0132996
0.012207,0.0129883
-0.0402832,0.0131653
-0.0158691,0.0132935
0.0128174,0.0132141
-0.00610352,0.0130432
-0.0109863,0.0127258
-0.00671387,0.0125366
0.00488281,0.0124329
0.010376,0.0123901
-0.00488281,0.0123962
0.00305176,0.0122925
-0.00244141,0.0119568
0.0115967,0.0118042
-0.00244141,0.011676
0.00183105,0.0114929
-0.00793457,0.0115295
0.00366211,0.0115356
-0.0177002,0.0116516
0.00549316,0.011615
0.00488281,0.0115051
-0.00610352,0.0114258
-0.0012207,0.0113647
-0.0170898,0.0113037
0.0140381,0.0113831
0.0335693,0.0116211
0.0244141,0.0116333
0.00854492,0.0116394
-0.012207,0.0117493
-0.00305176,0.0116089
0.0128174,0.0115723
0.0189209,0.0117249
0.00915527,0.011792
-0.0140381,0.011908
-0.0109863,0.0119446
0.0177002,0.0120972
0.0354004,0.0123718
-0.0170898,0.012439
0.0140381,0.0123535
0.00793457,0.012262
-0.0152588,0.0123901
0.00671387,0.012384
-0.00549316,0.0122131
-0.0134277,0.0121826
-0.0262451,0.0123718
-0.0305176,0.0126587
-0.00427246,0.0126221
0.0012207,0.0126221
-0.020752,0.012793
-0.0262451,0.0129822
0,0.0128174
-0.00488281,0.0127808
-0.00488281,0.0126343
-0.0201416,0.0128052
0.00244141,0.0127869
-0.00183105,0.0126404
0.000610352,0.012616
-0.00732422,0.0125732
0.0128174,0.0127014
0.00976563,0.0126099
-0.0219727,0.0125671
0.00305176,0.0124756
0.0189209,0.0123901
0.0146484,0.0125122
0.0183105,0.0126953
-0.00915527,0.0127441
-0.00732422,0.0127625
0.022583,0.0129639
-0.0134277,0.0128784
0.0268555,0.0129272
0.00732422,0.01297
-0.0311279,0.0132629
0.0152588,0.0132324
0.0140381,0.0132385
-0.00366211,0.0131226
0.00732422,0.0129761
-0.0012207,0.0129578
-0.00549316,0.0129028
-0.0128174,0.0128784
-0.010376,0.0128662
-0.00427246,0.0128723
0.00244141,0.0127563
-0.00549316,0.0125916
-0.0146484,0.0125549
0.00732422,0.0121033
0.00427246,0.0117432
-0.00854492,0.0118225
0.010376,0.0117554
0.0250244,0.0119995
-0.0262451,0.012262
-0.00976563,0.0122192
0.0262451,0.0122498
0.0170898,0.0120728
0.00610352,0.0120544
-0.00244141,0.0119141
0.0213623,0.0118469
0.00671387,0.0118591
0.00915527,0.0117676
0.0146484,0.0118469
-0.012207,0.0118713
0.000610352,0.011792
0.0177002,0.0118469
0.020752,0.0116516
-0.0189209,0.0116821
-0.0323486,0.0118774
0.00488281,0.0118652
-0.010376,0.0118591
-0.0311279,0.0121033
-0.0250244,0.0123047
-0.0238037,0.012439
-0.0238037,0.0126282
-0.0231934,0.0128296
-0.00366211,0.0128418
0.0201416,0.0129272
0.00549316,0.0129578
0.0421143,0.0133606
0.0219727,0.013501
0.00183105,0.0134827
-0.00488281,0.0133545
0.0268555,0.0135681
-0.0152588,0.0136719
0.00183105,0.0136292
-0.0189209,0.0138062
-0.055542,0.0141907
-0.0219727,0.01427
-0.0109863,0.0140442
-0.0134277,0.0139343
-0.00732422,0.0139221
-0.00610352,0.0138611
0.0128174,0.0139587
0.00854492,0.013916
0.00244141,0.0137512
0.0128174,0.0137878
0.010376,0.0137512
-0.00427246,0.0136841
-0.010376,0.0136108
-0.00793457,0.0133362
-0.0201416,0.0133667
0.00549316,0.0132813
-0.00488281,0.0132507
-0.0115967,0.0132141
0,0.013147
0.010376,0.0131958
0.0274658,0.0133362
0.00183105,0.013092
-0.00610352,0.0128479
0.012207,0.0129272
0.0292969,0.013208
0.0164795,0.0131653
-0.00732422,0.0129761
-0.0158691,0.0131348
-0.00183105,0.0131042
-0.0115967,0.0131714
-0.00488281,0.0130188
-0.0292969,0.0132874
-0.0219727,0.0134888
-0.0177002,0.0136597
-0.0213623,0.0138
0.00671387,0.013739
0.0213623,0.013855
0.0250244,0.0138855
0.00244141,0.0138794
0.0177002,0.0138672
0.0183105,0.0139038
0.0158691,0.0138794
-0.00488281,0.0138367
0.010376,0.0138672
0.00732422,0.0137146
-0.0244141,0.0138245
-0.00976563,0.0136536
0.0115967,0.0136963
0.000610352,0.0133911
0.0115967,0.0133545
-0.010376,0.0133179
0.0219727,0.013501
0.0152588,0.0135803
0.0128174,0.0136963
0.00366211,0.013678
-0.022583,0.0137756
0.00854492,0.0137573
0.00549316,0.0137695
-0.00732422,0.0138184
0.0146484,0.0139099
0.00305176,0.0137939
0.00488281,0.0137695
0.00183105,0.0137451
-0.0213623,0.0138733
0,0.0137695
-0.00366211,0.0135559
0.000610352,0.0132996
-0.0256348,0.0134583
-0.0213623,0.0134094
-0.00549316,0.0132935
-0.000610352,0.0132385
0.012207,0.0133362
0.00305176,0.0131531
0.00244141,0.0131104
0.0183105,0.0132019
-0.00366211,0.013092
0.00305176,0.0130005
-0.0115967,0.0131104
-0.0238037,0.0131714
0.00793457,0.0130432
-0.012207,0.0129761
0.00427246,0.0126953
-0.0134277,0.0127808
-0.00610352,0.012738
-0.00305176,0.0124573
0.00366211,0.0122437
0.022583,0.0122314
0.0158691,0.0121521
0.000610352,0.0119263
0.00793457,0.011969
0.00183105,0.0117859
0.0158691,0.0118896
0.00610352,0.0115295
0.0140381,0.0114502
-0.0170898,0.0116028
0.00610352,0.011615
0.012207,0.0114685
-0.0219727,0.0115356
-0.0134277,0.0116516
-0.00854492,0.0115479
-0.00244141,0.0110168
-0.00183105,0.0108154
-0.0012207,0.0107178
0.0250244,0.0108337
0.0323486,0.011084
0.0134277,0.0111572
-0.010376,0.0111328
0.0183105,0.0112305
0.0341797,0.0115479
0.00671387,0.0114868
0,0.0113831
-0.0134277,0.0114746
0.00244141,0.0113953
0.00976563,0.0114136
0.0170898,0.0113831
-0.0421143,0.0117493
0.0134277,0.0118347
-0.00244141,0.0117432
-0.00610352,0.0118042
-0.0128174,0.0118286
-0.00671387,0.0116211
0.00732422,0.011676
-0.0012207,0.0116272
0.00793457,0.0115845
0.0231934,0.0115234
0.0152588,0.0115112
-0.0170898,0.0116089
0.0128174,0.0115784
0.0140381,0.0117004
-0.0195313,0.0117798
-0.00915527,0.0118225
0.010376,0.0116333
-0.0140381,0.011554
-0.0195313,0.0115723
0.00366211,0.0113953
-0.0189209,0.0115173
0.0158691,0.0114624
-0.010376,0.0113159
-0.0158691,0.0114502
-0.00549316,0.0113281
-0.00976563,0.0112427
-0.010376,0.0111877
-0.00244141,0.0111633
-0.00610352,0.0111206
-0.000610352,0.0110535
0.00305176,0.0108398
-0.00488281,0.010791
-0.00366211,0.0107117
0.0354004,0.0110596
0.0476074,0.0114197
0.0311279,0.0116272
0.0317383,0.0117249
0.00427246,0.011615
0.0396729,0.0118835
-0.0012207,0.0118591
-0.0109863,0.0117432
0.00427246,0.0117004
-0.0238037,0.0118835
-0.0262451,0.0120728
-0.0256348,0.0121826
-0.00427246,0.0121948
0.00305176,0.0121765
0.0012207,0.0121704
0.020752,0.0121643
0.0280762,0.0124451
-0.00854492,0.0124939
-0.0256348,0.0127441
0.0109863,0.0125977
0.0219727,0.0126038
0.00854492,0.0126343
-0.020752,0.0128357
-0.0244141,0.0129578
-0.0115967,0.0130432
0.0146484,0.0131653
0.00732422,0.0130554
-0.0115967,0.0131348
0.0189209,0.0132935
0.010376,0.0132813
-0.0146484,0.0131897
0,0.0131104
-0.0164795,0.0131531
0.00427246,0.0131531
-0.00610352,0.0130798
-0.0109863,0.0131287
-0.0109863,0.013208
-0.0146484,0.0133179
-0.00976563,0.0131897
0.00549316,0.0130859
-0.0140381,0.0132202
0.00854492,0.0132263
0.00732422,0.0132813
-0.00427246,0.0131653
0.000610352,0.0131104
-0.00244141,0.0129944
0.020752,0.013031
0.0213623,0.0131836
0.03479,0.0134094
0.0469971,0.0136597
0.0396729,0.0139221
0.0134277,0.0139709
0.0292969,0.0142395
0.00549316,0.0142761
-0.0268555,0.0145325
0.00793457,0.0143616
-0.0140381,0.0141785
-0.0384521,0.0144287
-0.0305176,0.0146301
0.0012207,0.0144592
0.00427246,0.0141602
-0.012207,0.0142151
0.0134277,0.0143494
0.0592041,0.0148071
0.065918,0.0154419
-0.020752,0.0155518
-0.00549316,0.0154358
0.0469971,0.0154846
0.0213623,0.015564
-0.0158691,0.0156982
-0.00732422,0.0157104
0.0238037,0.0158203
-0.0408936,0.0161621
-0.0146484,0.0162354
-0.00976563,0.0163208
-0.0195313,0.0164368
-0.0140381,0.0163452
-0.0244141,0.0164368
-0.0189209,0.0164551
-0.0164795,0.0164917
-0.0354004,0.0167053
-0.00549316,0.0165649
-0.0152588,0.016626
-0.0152588,0.0166748
-0.00488281,0.0165833
0.0128174,0.0165161
0.00671387,0.0165466
-0.0244141,0.0166016
0.0146484,0.0165894
0,0.0164856
-0.00610352,0.0163879
-0.00183105,0.0163513
-0.0012207,0.0162659
0.00427246,0.0162048
0.00610352,0.0162415
-0.00305176,0.0162109
0.00549316,0.0162598
0.00976563,0.0163269
0.0195313,0.0164734
0.0323486,0.0167603
0.0134277,0.0165405
0.0408936,0.0164734
0.0244141,0.0164063
0.0250244,0.0163391
-0.010376,0.0164001
0.00976563,0.0161011
0.0384521,0.0164734
-0.022583,0.0165894
-0.00976563,0.0166443
-0.0146484,0.0165527
-0.00427246,0.016333
0.0115967,0.0161926
0.0012207,0.0161621
0.0115967,0.0162476
0.0274658,0.01651
0.00732422,0.0163757
-0.0201416,0.0162964
0.0177002,0.0163879
0.0164795,0.0162964
-0.0128174,0.0163147
-0.0531006,0.016626
-0.0238037,0.0167786
-0.00305176,0.0166016
-0.0109863,0.0164673
0.00976563,0.016449
-0.0164795,0.0164673
-0.03479,0.0167419
0.00305176,0.0166565
0.0164795,0.0166321
0.0012207,0.0165405
0.0012207,0.0164063
0.0305176,0.0167114
0.0335693,0.0168823
0.0183105,0.0170227
-0.00671387,0.0170288
0.00427246,0.0169617
0.0415039,0.0172668
0.00976563,0.017218
-0.00976563,0.017218
-0.020752,0.0173706
-0.0476074,0.0177063
-0.0140381,0.0177612
-0.00671387,0.0177551
-0.0219727,0.0179321
-0.00488281,0.0179749
-0.00183105,0.0179688
0.0115967,0.0178772
0.022583,0.0178894
-0.00366211,0.0175781
0.00549316,0.0171631
0.0421143,0.0171875
0.0469971,0.0175232
0.00183105,0.0172485
-0.0292969,0.0174866
0,0.017218
0.00976563,0.0172363
0.00427246,0.0171387
-0.0231934,0.0169861
-0.010376,0.0167847
-0.000610352,0.0167786
0.00427246,0.0167786
-0.0115967,0.0167725
-0.00610352,0.0166992
0.00488281,0.016156
-0.00183105,0.0155151
0.00488281,0.0153564
-0.0170898,0.0154724
-0.00366211,0.0150391
0.00427246,0.0148682
0.00305176,0.01474
0,0.0146667
0.0012207,0.0144409
0.0158691,0.0141907
0.0146484,0.0141907
0.0134277,0.0142273
-0.0183105,0.0142151
0.00427246,0.0141174
0.0164795,0.0140381
-0.0012207,0.0138611
-0.00854492,0.0137817
-0.00549316,0.0134827
-0.00915527,0.0135193
-0.00854492,0.0134521
0.0164795,0.0134644
-0.0146484,0.013562
0.0115967,0.0135498
-0.00915527,0.0135742
0.00305176,0.0133606
-0.010376,0.0133179
-0.0012207,0.0133301
-0.0213623,0.0134827
0.00732422,0.0135376
0.00793457,0.0136047
0.012207,0.0136841
0.0506592,0.0141296
-0.0238037,0.0143372
0.0189209,0.0144714
0.0366211,0.01474
0.0543213,0.0150879
-0.0146484,0.0149109
-0.0164795,0.0149414
-0.00793457,0.0146118
-0.0158691,0.0145264
0.000610352,0.0142822
-0.00244141,0.0142029
-0.0183105,0.0142883
0.0231934,0.0141357
0.0299072,0.014209
-0.00671387,0.0141785
-0.0183105,0.0142151
0.0756836,0.0149292
0.057373,0.015387
0,0.0153748
-0.0360107,0.0156189
0.0372314,0.0157166
0.0128174,0.0157715
-0.0323486,0.0158936
-0.0292969,0.0160095
-0.0463867,0.0163086
-0.0152588,0.016333
-0.0177002,0.015979
-0.0213623,0.0159546
-0.0311279,0.0162354
-0.0109863,0.0162354
-0.00183105,0.016156
-0.00427246,0.0160339
-0.000610352,0.0156921
-0.00549316,0.0157166
-0.0115967,0.0156677
-0.0256348,0.0159119
-0.0256348,0.016156
-0.0164795,0.0160156
-0.010376,0.0157837
-0.00427246,0.0156433
-0.0115967,0.0156921
0.00488281,0.0156982
-0.0189209,0.0154724
0.0140381,0.0155151
0.0158691,0.0155762
0.0305176,0.0156738
0.0189209,0.015387
-0.00183105,0.0152649
0.00854492,0.0152832
0.0183105,0.0152466
0.00732422,0.015271
0.020752,0.0154602
0.00183105,0.0153625
0.0152588,0.0152893
-0.00244141,0.0152771
-0.0195313,0.0154175
-0.00244141,0.0150208
0.0152588,0.0147034
-0.00305176,0.0147156
-0.0012207,0.0144348
-0.00366211,0.0144714
0.0146484,0.0145203
0.00549316,0.0145325
0.0213623,0.0145142
0.012207,0.0145325
0.00488281,0.0145752
0.0274658,0.0148071
0.00793457,0.0147705
-0.0177002,0.0148865
-0.010376,0.0149414
-0.00549316,0.014978
-0.00610352,0.0149902
0.0115967,0.0149353
-0.0335693,0.0152344
-0.0128174,0.0153198
-0.000610352,0.0152954
-0.0152588,0.015448
-0.0213623,0.0156494
-0.0140381,0.0156311
-0.00366211,0.0155212
-0.00610352,0.015448
-0.00610352,0.0153259
0.00427246,0.0153259
0.00976563,0.0152588
0.00244141,0.015271
0.0115967,0.0153015
0.00427246,0.0152893
-0.00366211,0.0152344
-0.0152588,0.0153015
-0.020752,0.0153442
-0.00732422,0.015271
0.00427246,0.0151978
-0.0115967,0.0152222
-0.00671387,0.0152588
0.0262451,0.0154175
0.00915527,0.0154968
0.0201416,0.0154846
0.0152588,0.015564
-0.00366211,0.0155212
0.0177002,0.0155762
0.00671387,0.0151367
0.000610352,0.0149048
0.00854492,0.014801
0.0244141,0.014679
-0.0250244,0.014386
-0.0213623,0.0144531
0.0311279,0.0145996
0.00488281,0.0145691
-0.0128174,0.0145386
-0.0305176,0.0148376
0.00488281,0.0148621
0.00549316,0.0147339
-0.00427246,0.0145447
-0.00305176,0.0142761
-0.012207,0.0143311
0.00854492,0.0142334
0.012207,0.0135986
-0.0012207,0.0130371
-0.0183105,0.0132202
-0.00732422,0.0129333
0.00183105,0.0125793
0.0012207,0.0124634
0.00732422,0.0122131
-0.0311279,0.0122314
0.0158691,0.0119263
0.0292969,0.0120667
0.0164795,0.0120544
0.0109863,0.0119507
-0.010376,0.0117432
-0.00366211,0.0116699
0.0146484,0.0117981
-0.0140381,0.0118958
-0.0140381,0.01203
-0.00671387,0.0120422
-0.0244141,0.0121704
-0.020752,0.0121216
0.00549316,0.0119202
0.0219727,0.0119751
0.0146484,0.0120178
-0.00366211,0.0120117
-0.0164795,0.0120605
0.0146484,0.0121582
0.0115967,0.012085
-0.0146484,0.0120911
-0.00854492,0.0120178
0.0146484,0.0118591
0.00183105,0.0116882
-0.022583,0.0118958
-0.00305176,0.0118408
-0.00732422,0.011731
0.0012207,0.0116699
-0.00793457,0.0115417
-0.0115967,0.0116394
0.00793457,0.0115662
-0.00183105,0.0115601
-0.0115967,0.0114807
-0.00183105,0.0114746
-0.0134277,0.0114563
0.00366211,0.0114624
0.0012207,0.0114624
0.00793457,0.0115051
0.0189209,0.0115479
-0.0213623,0.0117065
-0.00915527,0.0115845
0.0109863,0.0115723
-0.00427246,0.0115662
0.00427246,0.0113342
0.00427246,0.0112976
-0.0262451,0.0113831
-0.0115967,0.0113953
0.000610352,0.0113464
0.00915527,0.011377
0.00732422,0.0113342
0.00427246,0.0110413
0.0482178,0.0113953
0.022583,0.011615
-0.0335693,0.0117981
0.0256348,0.0118408
0.00366211,0.0117371
0.057373,0.0122742
0.0512695,0.0127258
0.0421143,0.0130859
-0.0292969,0.0133362
0.0341797,0.0135803
0.0268555,0.0138245
0.0128174,0.0138367
-0.0189209,0.0139832
-0.0134277,0.0140808
-0.0268555,0.0141968
-0.0378418,0.0143677
-0.0201416,0.0144958
0.00549316,0.0145081
0.0177002,0.0145691
-0.0421143,0.0149231
0.000610352,0.0146667
0.00244141,0.0145996
-0.0335693,0.0147339
-0.0238037,0.0148193
-0.0280762,0.0150635
-0.0164795,0.0150513
-0.0256348,0.0152405
-0.00793457,0.0153137
0.0158691,0.015387
0.00305176,0.0151733
-0.00488281,0.0149719
-0.00976563,0.014856
0.0219727,0.0147644
0.0134277,0.0148499
0,0.0147217
-0.0128174,0.0145447
-0.0231934,0.0147278
0.0189209,0.0148621
0.00671387,0.0148865
-0.0109863,0.0149658
0.0335693,0.0151794
0.010376,0.0151978
0.00244141,0.0151001
0.0140381,0.0152283
-0.0152588,0.0151978
0.00488281,0.0151733
-0.0146484,0.0153015
-0.0238037,0.0155273
-0.0183105,0.0156372
-0.00793457,0.0154053
-0.0170898,0.0154175
-0.00427246,0.0151672
0.0378418,0.0153809
0.0531006,0.015802
0.0622559,0.0163208
0.0701904,0.0169861
0.00610352,0.0169006
0.0311279,0.0170715
0.055542,0.0174866
0.00183105,0.0174377
-0.0390625,0.0175842
-0.0262451,0.0176392
-0.0506592,0.0180908
-0.0195313,0.0180664
-0.0640869,0.0185608
-0.0299072,0.0188232
-0.012207,0.0187805
-0.00610352,0.0186951
0.0213623,0.0187927
0.03479,0.0189941
-0.0317383,0.0192261
-0.0158691,0.0192383
-0.022583,0.0194458
0.0585938,0.0198059
0.03479,0.0201233
-0.0292969,0.020343
-0.00854492,0.0204163
-0.0280762,0.0206177
0.0134277,0.020636
0.0201416,0.0207581
-0.00244141,0.0207642
0.0115967,0.0207642
-0.0012207,0.0207581
-0.0213623,0.0208374
0.045166,0.0212524
0.0598145,0.0218384
-0.100708,0.0227661
-0.0494385,0.0230713
0.0115967,0.0229736
-0.0231934,0.023114
-0.0708008,0.0237122
-0.0274658,0.0239441
-0.0256348,0.0241577
-0.0390625,0.0245056
0.0231934,0.0244751
0.0756836,0.025116
0.0756836,0.0258667
-0.0189209,0.0259644
-0.0524902,0.026416
-0.0488281,0.0268616
-0.0335693,0.0267151
-0.000610352,0.0264954
-0.0457764,0.0266174
-0.00183105,0.0263794
-0.0354004,0.0266968
-0.0128174,0.0262512
0.0457764,0.0261963
0.0720215,0.0264954
0.112915,0.0273315
0.00610352,0.0270508
-0.0201416,0.0269836
-0.0109863,0.0269653
-0.00793457,0.0268555
0.122681,0.027948
0.0836182,0.0285156
-0.140381,0.029541
-0.0805664,0.0301453
0.0244141,0.0303345
0.0378418,0.0305359
-0.0134277,0.030249
-0.0408936,0.0306519
-0.043335,0.0310608
0.00915527,0.0308167
0.0378418,0.030957
0.00366211,0.0307129
0.0158691,0.0307068
-0.0311279,0.0307617
-0.00976563,0.03078
0,0.0306213
-0.000610352,0.0305969
-0.03479,0.030896
-0.0189209,0.0309875
0.0164795,0.0309326
-0.0292969,0.0310913
-0.0170898,0.0312622
0.0665283,0.0317993
0.00915527,0.0316589
0.045166,0.0319214
0.00183105,0.0318726
-0.251465,0.0342773
-0.0482178,0.0344238
0.0494385,0.0348145
-0.0335693,0.0351257
-0.102539,0.0360107
-0.0592041,0.0364502
0.0524902,0.0369263
0.0756836,0.0375366
0.0628662,0.0379272
0.10376,0.0387817
0.15625,0.0402649
0.118408,0.0412781
0.0524902,0.0417603
-0.0860596,0.0422424
-0.112915,0.0428406
0.0854492,0.0430725
-0.0622559,0.0429932
-0.108032,0.0440125
-0.0610352,0.0443115
-0.0231934,0.043988
0.0628662,0.0445984
0.0402832,0.0446106
0.0805664,0.0451538
0.00183105,0.0446655
0.145874,0.045929
0.0146484,0.0454346
-0.0439453,0.045575
0.057373,0.0460266
-0.0012207,0.0459778
0.00488281,0.045813
-0.0646973,0.0461121
-0.0170898,0.0459656
-0.0695801,0.0465027
-0.148926,0.0477661
0.128784,0.048468
-0.00366211,0.0481567
-0.100098,0.0488647
-0.0543213,0.0493225
0.0878906,0.0499207
0.127563,0.051062
-0.0598145,0.0514587
-0.0366211,0.0518005
0.0305176,0.0519897
-0.0439453,0.052417
0.0177002,0.0523804
-0.0726318,0.052655
-0.0469971,0.0525269
-0.108643,0.0526062
0.0366211,0.052478
-0.0164795,0.0525269
-0.0811768,0.0531067
0.0537109,0.0529358
0,0.0526611
-0.115967,0.0535645
0.00488281,0.0532227
-0.0274658,0.0532654
0.00610352,0.0525696
0.0671387,0.0524841
-0.0408936,0.0527039
0.00244141,0.0522034
-0.0274658,0.0519897
0.0531006,0.0521851
0.130615,0.0534851
-0.0128174,0.0531555
-0.0256348,0.0533936
-0.012207,0.0531616
0.0140381,0.0531738
0.00610352,0.0527771
-0.134888,0.0534058
0.0494385,0.052771
0.0701904,0.0534119
0.022583,0.0534363
0.00854492,0.0534119
0.103149,0.054364
0.106201,0.0541992
0.0317383,0.0536804
-0.0280762,0.0525574
-0.0714111,0.0524658
-0.0189209,0.0524109
-0.0921631,0.0529541
-0.12085,0.0540283
-0.0317383,0.0539368
-0.0213623,0.053717
-0.0396729,0.0540222
-0.00488281,0.0536926
0.15625,0.0552185
0.143433,0.0564941
0.100098,0.0571838
-0.0439453,0.0575256
-0.0866699,0.0583923
0.0274658,0.0586609
-0.0750732,0.0590637
-0.12085,0.060083
-0.0671387,0.0605896
-0.0567627,0.0608643
-0.0823975,0.0615173
-0.114746,0.0619995
-0.0421143,0.0623291
0.15625,0.0634399
0.224609,0.0656677
0.010376,0.0632568
-0.0335693,0.0631104
-0.067749,0.0632935
-0.0219727,0.0631775
0.0701904,0.062854
0.0231934,0.0624939
-0.0543213,0.0625122
-0.0463867,0.0622192
0.0244141,0.0618347
0.0274658,0.0610718
0.00976563,0.0596069
0.106812,0.059491
-0.0897217,0.0598633
-0.413818,0.0631409
0.0817871,0.0628296
-0.000610352,0.0619812
-0.128174,0.0626404
-0.128174,0.0628418
0.012207,0.0623535
0.148315,0.0636047
0.117798,0.0641541
0.115356,0.0649048
0.224609,0.0663452
0.175781,0.0680847
0.00366211,0.0666626
-0.0958252,0.0674744
0.00915527,0.0671265
-0.187378,0.0684265
0.0457764,0.0688721
-0.0878906,0.0697021
-0.0976563,0.0700317
-0.0439453,0.0703003
-0.010376,0.0697083
0.103149,0.0692505
0.126343,0.0692261
0.130615,0.0704956
-0.0146484,0.0696411
-0.196533,0.0710632
-0.0012207,0.0701965
0.0531006,0.0694519
-0.0134277,0.068988
-0.0970459,0.0695923
-0.078125,0.0700684
-0.0640869,0.0702698
-0.010376,0.0701965
0.022583,0.069696
0.178833,0.0710144
0.0891113,0.0708191
-0.101318,0.0714661
-0.0201416,0.0715027
0.0958252,0.0716492
0.181274,0.0729248
0.0915527,0.0738403
-0.125732,0.073938
-0.212402,0.0760132
0.144653,0.0771851
0.0604248,0.0777283
-0.163574,0.0786926
-0.108643,0.0793701
-0.057373,0.0799194
0.0592041,0.0802368
0.00427246,0.0797485
0.0500488,0.0789429
0.175781,0.0805725
0.0921631,0.0812378
-0.0488281,0.081604
-0.441284,0.0858765
-0.0262451,0.0860779
0.0982666,0.0857117
-0.0927734,0.086145
-0.20752,0.0875183
-0.117188,0.0884644
0.00305176,0.0884094
0.0305176,0.0876831
0.181274,0.0884338
0.0689697,0.0888062
0.0787354,0.0893127
0.0994873,0.0895935
-0.0860596,0.0902649
-0.12207,0.090564
-0.0286865,0.0896423
0.0408936,0.0897339
0.12085,0.0907288
0.0262451,0.0905945
-0.17395,0.0922852
-0.0213623,0.0909363
0.217896,0.0916809
0.114746,0.0918274
0.0469971,0.0918579
0.0518799,0.09151
-0.0463867,0.0916992
0.00976563,0.0910461
0.0714111,0.0905518
0.0598145,0.0904785
0.153198,0.0914429
-0.108643,0.0917053
-0.192871,0.0924866
0.0805664,0.0928711
-0.0268555,0.0915771
-0.0640869,0.0899719
-0.0927734,0.0907959
-0.126343,0.0917236
-0.0683594,0.0917297
-0.0262451,0.0917725
-0.00244141,0.091095
-0.00671387,0.0909302
-0.0756836,0.0911438
-0.0476074,0.091156
-0.108032,0.0919922
-0.0115967,0.0918335
0.119629,0.0929321
0.00854492,0.0919495
-0.0183105,0.0912354
0.0585938,0.0876831
0.114136,0.0880066
0.111694,0.0891174
0.0823975,0.0886597
-0.146484,0.0888428
0.0482178,0.0892029
0.0769043,0.0884888
0.0488281,0.0877991
-0.100098,0.0876465
-0.0128174,0.0855286
0.0286865,0.0840576
0.055542,0.0845764
0.0128174,0.0837463
-0.0012207,0.083667
-0.0390625,0.0821838
-0.0628662,0.0823547
0.065918,0.082135
0.0213623,0.0813721
0.0750732,0.0816833
-0.0878906,0.0824585
0.0378418,0.0818054
0.146484,0.0820068
0.0274658,0.0809753
-0.0439453,0.0812683
-0.0402832,0.0797058
0.0689697,0.0803833
0.12146,0.0810669
0.119019,0.0821228
-0.213623,0.0832886
-0.194702,0.0844543
0.0421143,0.0842346
0.0286865,0.0844177
-0.130615,0.085498
-0.128784,0.0849976
-0.101929,0.0851257
-0.100708,0.0851196
0.0164795,0.085083
0.0408936,0.0845337
0.0244141,0.0829651
0.00732422,0.0821228
-0.198975,0.0828552
-0.00671387,0.0807983
0.03479,0.0796997
-0.147095,0.0805664
-0.0500488,0.0794312
0.0280762,0.0786255
0.0427246,0.078479
0.0384521,0.0782715
0.0927734,0.0791565
0.164185,0.0802979
0.0860596,0.0794006
-0.0372314,0.0788513
0.0152588,0.0785156
-0.0115967,0.0742188
0.0799561,0.0747559
-0.0592041,0.0743652
-0.067749,0.074115
-0.020752,0.0722473
0.00549316,0.0711304
0.00488281,0.0711487
0.0628662,0.0714722
0.0408936,0.0700684
0.0817871,0.0701965
0,0.0694092
0.020752,0.0686218
0.0469971,0.0682312
-0.0836182,0.0678467
-0.0341797,0.0679016
0.10376,0.0685303
-0.125732,0.0685791
-0.111694,0.0694336
-0.00854492,0.0677795
0.0628662,0.0681946
0.0628662,0.0666443
0.0164795,0.0656616
-0.022583,0.0654175
0.167236,0.066571
-0.00854492,0.0661926
-0.0274658,0.0663696
-0.0549316,0.0662048
-0.0457764,0.0660645
-0.150146,0.0660339
0.0189209,0.0651367
-0.175781,0.0649658
0.0762939,0.0649231
0.010376,0.0647583
0.0231934,0.0643494
0.0305176,0.0637268
-0.0341797,0.0628052
0.0622559,0.0627441
0.0390625,0.0628723
-0.00244141,0.0628723
0.032959,0.0631348
0.0500488,0.0628784
0.0598145,0.0630005
-0.118408,0.0631042
0.032959,0.0633179
0.022583,0.0623474
0.0238037,0.0625
-0.0335693,0.0626526
-0.043335,0.0625
-0.0213623,0.0615723
0.0115967,0.0605713
-0.0646973,0.0603943
-0.0933838,0.0598633
-0.0543213,0.0599243
0.0939941,0.0600952
0.0549316,0.0601563
-0.108643,0.0602417
0.0164795,0.0602783
0.0469971,0.0604614
0.0689697,0.0605957
0.0402832,0.0608704
0.0317383,0.0611755
0.0415039,0.0612
0.0415039,0.0609863
-0.0360107,0.0606873
0.0769043,0.0612427
-0.170898,0.0622009
-0.212402,0.063446
-0.15686,0.0646362
0.137329,0.0645447
0.0421143,0.0646912
-0.0506592,0.0647583
-0.0415039,0.0647705
0.0720215,0.064801
0.131226,0.0648987
0.255127,0.0662598
0.0952148,0.0650757
-0.0140381,0.063269
-0.114136,0.0639893
-0.106201,0.0647644
0.032959,0.0637878
-0.0341797,0.0628418
-0.0921631,0.0627441
-0.0561523,0.0622986
0.0219727,0.0623535
0.0726318,0.0626709
0.0805664,0.0632324
0.0646973,0.0638062
0.0476074,0.0622925
-0.0384521,0.0626099
0.0189209,0.0624512
0.0506592,0.0614868
0.0286865,0.0612732
-0.0628662,0.0616211
-0.0817871,0.0620117
0.057373,0.0622009
0.0134277,0.0614075
-0.032959,0.0600952
-0.00732422,0.0593079
0.0115967,0.0590515
0.0177002,0.0590759
0.0439453,0.0593994
0.0219727,0.0588196
-0.119019,0.0594177
0.0268555,0.0590088
0.00183105,0.0588196
-0.166626,0.0604309
-0.211182,0.0624939
0.0378418,0.0622437
0.101318,0.0628479
-0.0744629,0.0627747
0.0585938,0.0633606
0.00183105,0.0631714
-0.0836182,0.0635376
0.291748,0.0656189
0.0787354,0.0660645
-0.0164795,0.0651917
-0.0335693,0.06427
0.022583,0.0633789
0.0354004,0.0636475
0.0732422,0.0637512
0.10437,0.0641663
0.000610352,0.0640076
0.0598145,0.0643799
-0.0445557,0.0631531
-0.00732422,0.0631409
0.00793457,0.0629456
-0.0378418,0.0627747
-0.0415039,0.0627319
-0.0714111,0.0619446
-0.0799561,0.0625549
0.0518799,0.0613159
0.00488281,0.0606018
-0.0128174,0.0606262
-0.0274658,0.0606689
-0.020752,0.0605713
0.0793457,0.0610229
0.000610352,0.0604065
-0.00976563,0.0601135
0.0146484,0.0602356
0.0579834,0.0604858
0.0744629,0.06073
-0.00671387,0.060199
-0.0482178,0.0594971
-0.03479,0.0595154
0.00366211,0.0593262
-0.0195313,0.0592834
-0.0317383,0.0592651
-0.0939941,0.0597717
-0.0476074,0.0600342
-0.0354004,0.0602722
-0.00305176,0.0596558
0.00732422,0.0587952
0.0317383,0.0585693
-0.0341797,0.0579712
-0.0268555,0.0576904
0.0537109,0.0571411
-0.0231934,0.0572083
0.0439453,0.0571777
-0.0360107,0.0568481
-0.0897217,0.0573425
-0.0201416,0.0572266
0.122681,0.0580383
0.0115967,0.0577393
-0.0543213,0.0579224
0.0671387,0.0578247
0.205688,0.0581726
0.0238037,0.0562866
-0.0396729,0.0551147
-0.0195313,0.0539368
0.0854492,0.0543701
0.00976563,0.0539612
-0.133057,0.0548767
-0.0866699,0.0550232
-0.0201416,0.0539124
-0.0219727,0.0515808
-0.0012207,0.0506409
0.0299072,0.0507996
0.0720215,0.0503784
0.0878906,0.0501953
0.020752,0.0500732
0.010376,0.0498352
0.0115967,0.0490295
0.0537109,0.0490051
-0.0921631,0.049707
0.0146484,0.0491272
-0.117188,0.0494934
0.010376,0.0489502
-0.0274658,0.0487488
-0.0402832,0.0487671
-0.00976563,0.0486755
0.0695801,0.0488647
0.067749,0.0492554
0.00244141,0.0486511
-0.043335,0.0482666
-0.0860596,0.0485535
0.0231934,0.0486511
0.043335,0.0487549
-0.106201,0.0497437
-0.0579834,0.0502075
0.00854492,0.050116
0.0341797,0.0500183
0.0476074,0.0502747
0.0598145,0.0496826
0.0970459,0.0503845
0.03479,0.0507141
0.0378418,0.0494263
-0.0970459,0.0482849
-0.109863,0.0490051
-0.19165,0.0499084
0.00671387,0.049231
0.0891113,0.0495361
-0.128784,0.0508057
-0.0457764,0.0504272
0.0561523,0.0480713
0.0860596,0.0481445
0.119629,0.049176
0.0933838,0.0497742
0.0695801,0.0502441
0.0604248,0.0504944
0.00854492,0.0498474
-0.0750732,0.0495544
-0.0628662,0.050177
-0.020752,0.0497864
-0.0378418,0.0497192
0.010376,0.0497498
0.0372314,0.0500427
-0.010376,0.0497681
-0.00244141,0.0493774
0.0286865,0.0489502
0.0958252,0.0491089
0.0360107,0.0489502
0.00976563,0.048999
-0.00854492,0.0489563
-0.0213623,0.0488953
-0.0695801,0.0493835
-0.0482178,0.0490723
-0.0177002,0.0492432
-0.00976563,0.0492432
0.0720215,0.0498169
-0.0109863,0.0493469
-0.00427246,0.048645
-0.131226,0.0498901
-0.0463867,0.0498718
-0.0244141,0.0497681
0.0939941,0.0506714
-0.0683594,0.0511597
-0.0634766,0.0514771
-0.0512695,0.0510498
0.0537109,0.0511108
0.00244141,0.0507813
0.043335,0.0511841
-0.0372314,0.0514832
-0.0335693,0.0515015
0.0128174,0.0512878
0.0012207,0.0510315
-0.0140381,0.0506348
0.0286865,0.0506897
0.0250244,0.0505005
-0.0231934,0.0503723
0.0305176,0.0497803
0.0384521,0.0499634
-0.00610352,0.0487976
-0.0372314,0.049054
0.00183105,0.0485291
-0.00732422,0.0479309
0.0244141,0.0461182
0.055542,0.0464355
0.0683594,0.0467224
-0.0201416,0.0467285
-0.00427246,0.0459167
0.117188,0.046991
0.0402832,0.0460632
-0.0500488,0.045697
-0.0378418,0.045874
0.0189209,0.0458435
-0.0244141,0.0460754
-0.0354004,0.0461304
0,0.0454102
0.0238037,0.0447693
0.0231934,0.0447937
-0.0274658,0.0449646
-0.0463867,0.0453125
-0.119629,0.0459717
-0.142212,0.0464722
0.219727,0.0485229
0.0274658,0.0476257
-0.101929,0.0485413
-0.0201416,0.048468
0.0183105,0.0482483
0.118408,0.0493347
0.0506592,0.0491455
-0.00183105,0.0484863
-0.0268555,0.0487305
0.0164795,0.0484619
0.010376,0.0477051
-0.0372314,0.0478455
-0.0653076,0.0480652
-0.0299072,0.0473022
0.0238037,0.0469604
0.0817871,0.0476929
-0.0158691,0.0475098
-0.055542,0.0475891
-0.0317383,0.0473083
-0.0457764,0.0467957
-0.0469971,0.0469177
0.0366211,0.0469055
0.0598145,0.0465332
-0.00854492,0.04552
-0.0561523,0.044165
-0.0317383,0.0444153
0.113525,0.0446594
0.0482178,0.0438538
0.0219727,0.0436157
0.0628662,0.0436829
0.0280762,0.043103
-0.0476074,0.0423828
0.00427246,0.0414917
0.0109863,0.0409058
-0.0720215,0.0410217
-0.0445557,0.0413818
-0.108643,0.0417175
-0.000610352,0.041095
0.0323486,0.0412109
-0.0305176,0.0411377
-0.00854492,0.0411194
0.0805664,0.0415527
0.0152588,0.0416016
0.0549316,0.0421265
0.0152588,0.0419922
0.0152588,0.0411865
-0.0115967,0.0409424
0.0787354,0.0416321
0.0421143,0.0419678
-0.134277,0.0430969
-0.146484,0.043866
0.0640869,0.0440247
-0.00610352,0.0439087
0.00854492,0.0438965
-0.0811768,0.043988
-0.101929,0.0448975
0.0598145,0.0454529
0.0762939,0.0449036
0.107422,0.0455139
0.078125,0.046051
0.0402832,0.0455139
0.0860596,0.0456909
-0.00671387,0.0451233
0.0109863,0.0447205
-0.0463867,0.0446472
0.0231934,0.0448547
-0.0134277,0.0445557
-0.0262451,0.0444458
-0.00732422,0.0441833
-0.00183105,0.0440735
-0.00976563,0.0441589
0.0012207,0.0440308
-0.00854492,0.0438293
-0.0567627,0.0441467
-0.0231934,0.0441467
0.101929,0.0448608
-0.10437,0.04552
-0.0891113,0.0463501
0.0787354,0.0467651
0.0408936,0.0471558
0.0012207,0.0470947
0.000610352,0.0468567
0.012207,0.0464233
-0.057373,0.0463135
-0.0213623,0.0463257
0.0860596,0.0471436
-0.010376,0.0460754
0.0201416,0.045874
0.0512695,0.0458862
0.114136,0.0466492
0.0457764,0.0469177
0.0140381,0.046814
-0.00183105,0.0464783
0.0262451,0.0467407
-0.0109863,0.0466125
-0.0891113,0.0472717
-0.0622559,0.0476196
-0.0848389,0.0480042
-0.0762939,0.0475708
-0.0140381,0.0462891
-0.00854492,0.0441772
0.00366211,0.0439392
-0.0128174,0.0430481
-0.00244141,0.0428711
0.0292969,0.042981
-0.0311279,0.0421082
0.00305176,0.0416321
0.0646973,0.0422607
0.00854492,0.0420776
-0.0976563,0.0428894
0.0909424,0.0436951
0.0512695,0.0438354
-0.0244141,0.0434265
0.010376,0.0432312
0.098877,0.0439819
-0.0109863,0.0432739
-0.0360107,0.0434753
-0.0823975,0.0437439
-0.0396729,0.0438232
-0.055542,0.0439209
0.0494385,0.0439453
0.0177002,0.0437561
-0.078125,0.0439392
0.0152588,0.0440063
-0.00427246,0.0434875
-0.010376,0.0432739
0.0512695,0.0426514
0.0592041,0.0427612
0.022583,0.0427673
-0.0268555,0.0424072
0.0341797,0.0424683
0.045166,0.0424438
0.0567627,0.0429688
0.0494385,0.0433533
0.0506592,0.0431396
0.0500488,0.0431946
-0.0506592,0.0426147
-0.0238037,0.0428467
-0.101318,0.0435364
-0.105591,0.0442871
0.00305176,0.0442322
-0.032959,0.0437561
-0.0256348,0.0438599
-0.0231934,0.0435425
0.0671387,0.0440613
0.0915527,0.0448242
-0.0146484,0.0448547
-0.0830078,0.0448975
0.0708008,0.0451843
0.032959,0.0441711
-0.0390625,0.0430969
-0.0524902,0.042981
-0.0115967,0.0430359
0.00793457,0.0430298
0.0585938,0.042804
0.0701904,0.0424866
0.0665283,0.0425537
-0.00427246,0.0418335
-0.0769043,0.0415283
-0.270996,0.043457
0.00549316,0.0431091
0.0817871,0.0430664
-0.0732422,0.0437317
-0.10437,0.0446655
-0.0469971,0.0446716
0.100708,0.0454468
0.112305,0.0464355
0.0750732,0.0469238
0.0964355,0.0478149
0.0109863,0.0479065
0.0317383,0.0481262
0.0128174,0.0482422
0.0158691,0.0483154
-0.0378418,0.0481262
-0.00244141,0.0479187
0.0378418,0.0472778
0,0.0462341
0.0378418,0.0457214
0.00244141,0.0449585
-0.0476074,0.0450256
-0.12146,0.046228
-0.0708008,0.0469299
0.0518799,0.0473267
0.078125,0.0475342
-0.0585938,0.0479065
-0.0292969,0.0473389
0.0726318,0.0479614
0.141602,0.049176
-0.0683594,0.0493469
-0.166626,0.0498718
0.140991,0.050824
0.0958252,0.0516418
-0.100708,0.0526306
-0.123291,0.0536011
-0.00610352,0.0535522
0.0469971,0.0531311
0.0775146,0.0532837
0.0970459,0.0534058
0.0524902,0.0531677
-0.0335693,0.053363
-0.101929,0.0542969
-0.202026,0.0562805
0.0598145,0.0567505
0.0476074,0.0572021
-0.0689697,0.0575989
-0.0640869,0.0579285
-0.00610352,0.057959
0.0787354,0.0580994
0.122681,0.0592407
0.0958252,0.0592224
0.0567627,0.0588806
0.0286865,0.0586548
-0.00488281,0.0584595
0.0402832,0.0587585
0.0238037,0.0580078
-0.00671387,0.0579651
-0.0305176,0.0579102
-0.043335,0.0575195
-0.0317383,0.0574402
0.0250244,0.057135
0.0128174,0.0567688
-0.0140381,0.0567322
0.00183105,0.0559692
0.0268555,0.0560852
0.0964355,0.0570068
0.112305,0.0580261
0.120239,0.0587158
0.0390625,0.0585144
0.00671387,0.0583557
-0.0756836,0.058844
-0.0299072,0.0588013
-0.0842285,0.0591919
-0.0842285,0.0594666
0.0128174,0.0591003
-0.135498,0.0599487
-0.0439453,0.0598877
0.0366211,0.0597473
0.00915527,0.0596008
0.0354004,0.0589417
0.0299072,0.0581848
0.0402832,0.0585571
-0.0512695,0.0587402
-0.0274658,0.0587585
0.0341797,0.0588684
-0.157471,0.0597717
-0.0537109,0.0593933
0.00366211,0.0592834
-0.0500488,0.0589539
0.0250244,0.0584961
0.0769043,0.0589355
-0.0299072,0.058844
0.0189209,0.0585083
0.0860596,0.0592529
0.127563,0.0604492
0.0604248,0.0604675
0.0170898,0.0599365
-0.0628662,0.0598999
0.0012207,0.0598694
0.0170898,0.0592712
0.00305176,0.0565918
-0.0189209,0.0567261
-0.00793457,0.0559875
0.0256348,0.0555115
-0.0756836,0.0552246
0.0537109,0.0552917
0.0372314,0.054657
-0.0567627,0.0541016
0.0360107,0.0537109
-0.0109863,0.0528564
0.0140381,0.052887
0.0238037,0.0528076
-0.0305176,0.0529846
-0.0244141,0.0530701
-0.045166,0.0531433
0.119019,0.0543091
-0.0878906,0.0548096
0.111694,0.0559265
-0.142822,0.0569763
-0.133057,0.0582825
-0.0457764,0.0582642
0.0701904,0.0577515
0.10437,0.0580872
-0.0952148,0.0585205
-0.0921631,0.0586609
0.0628662,0.0587036
0.0860596,0.0592712
0.0769043,0.059314
0.0750732,0.0586487
0.0488281,0.0584534
-0.0262451,0.0570496
-0.0445557,0.0560852
-0.0250244,0.0553772
0.0585938,0.0549561
0.00366211,0.0537598
0,0.0536987
0.0256348,0.0534851
-0.0012207,0.0527222
0.000610352,0.0517578
0.0469971,0.0517029
-0.0372314,0.0517395
0.0250244,0.0509705
0.0860596,0.0498108
-0.0360107,0.0495728
-0.116577,0.0502625
-0.0708008,0.0502808
-0.0415039,0.0500549
0.124512,0.051239
-0.0445557,0.0508972
-0.0689697,0.0503601
0.012207,0.0495239
0.0183105,0.0491394
0.0640869,0.0494934
0.0671387,0.050116
0.0598145,0.0503113
-0.0152588,0.0502258
-0.0354004,0.0505127
0.0427246,0.0506348
0.0152588,0.050354
-0.102539,0.051062
-0.130615,0.0521179
-0.111084,0.0531006
0.0848389,0.0538086
0.012207,0.0539124
-0.055542,0.0541992
-0.0384521,0.0536194
0.0476074,0.0529724
0.0653076,0.0524231
0.0769043,0.0528015
0.0921631,0.053656
0.0494385,0.0533936
0.0439453,0.0535339
-0.00244141,0.0527161
-0.136719,0.053241
-0.161743,0.0547302
-0.020752,0.0535828
0.00915527,0.0532349
-0.0170898,0.0530396
-0.0994873,0.0539429
-0.0317383,0.0539063
0.0671387,0.0542786
0.100708,0.0548828
0.0592041,0.0549622
0.0445557,0.0551331
0.043335,0.0552246
0.0238037,0.0538879
0.0170898,0.0535217
-0.00366211,0.0535217
-0.0280762,0.053302
-0.0421143,0.0534729
0.0646973,0.0533508
0.0775146,0.0538269
0.0585938,0.0542236
-0.109253,0.0544556
-0.10498,0.0542297
0.0689697,0.0543152
0.0750732,0.054895
-0.078125,0.0550476
-0.0506592,0.055542
-0.0195313,0.0555664
-0.0421143,0.055957
-0.0219727,0.0559875
0.0299072,0.0562073
-0.0518799,0.0564697
0.0128174,0.0558411
0.101318,0.0563171
0.0134277,0.0560791
-0.15564,0.0570679
-0.113525,0.057843
0.12146,0.0589478
0.0750732,0.0595581
-0.0982666,0.0603027
-0.0561523,0.0605591
0.022583,0.0605408
-0.0183105,0.0602722
-0.0604248,0.0596863
0.0604248,0.0594116
0.0872803,0.0591675
-0.00732422,0.0578125
-0.020752,0.0566895
-0.00732422,0.0563049
0.0585938,0.056189
-0.0201416,0.0553467
0.0500488,0.054895
0.0323486,0.0542969
-0.0299072,0.0539673
-0.0195313,0.053302
0.0213623,0.0527466
-0.012207,0.0521179
-0.0653076,0.0522827
-0.03479,0.0523682
0.0299072,0.0522217
0.00915527,0.052063
-0.012207,0.0515991
-0.00305176,0.051593
-0.0146484,0.0517395
0.0360107,0.0518433
0.0305176,0.0521362
0.0146484,0.0522766
0.00305176,0.0518372
0.0378418,0.0518433
0.0561523,0.0521545
-0.00671387,0.0513611
-0.0836182,0.0518372
-0.090332,0.0515747
0.0268555,0.0511353
0.0415039,0.0511353
-0.0683594,0.0505737
-0.0750732,0.0508789
-0.0244141,0.0504333
0.0427246,0.0507385
0.0598145,0.0511536
-0.0231934,0.0507446
-0.0183105,0.0502563
0.00854492,0.0497437
0.0830078,0.0504211
-0.0585938,0.0506531
-0.0219727,0.0504456
0.00305176,0.0503235
0.0372314,0.0496704
-0.0164795,0.0485291
-0.0457764,0.047876
-0.00732422,0.0471008
-0.00671387,0.0470459
0.00244141,0.0465149
0.0360107,0.0464905
0.0323486,0.0463379
0.0256348,0.0459412
0.0286865,0.045459
0.0750732,0.0452881
0.00244141,0.0448181
-0.0335693,0.0447144
-0.106201,0.045752
-0.0518799,0.0449036
-0.114136,0.0444275
0.0701904,0.0449219
0.0384521,0.0452148
-0.0427246,0.0454712
-0.0268555,0.0447449
0.100708,0.0454346
0.113525,0.0458984
0.0726318,0.0456177
0.0305176,0.0453308
0.0140381,0.0450256
-0.0701904,0.0452942
0.00915527,0.0451477
-0.0323486,0.0453003
-0.0317383,0.0455811
0.0860596,0.0461609
-0.102539,0.0467651
-0.131836,0.0474365
0.0878906,0.0475403
0.0823975,0.0477783
0.0793457,0.0474792
0.0537109,0.0469666
-0.147095,0.0477478
0.010376,0.0471008
0.148315,0.0478027
-0.0732422,0.0480286
-0.0488281,0.0483215
-0.0268555,0.0481689
-0.0531006,0.0484802
-0.0323486,0.0485046
0.0146484,0.0481323
0.0201416,0.0482056
0.0366211,0.0475586
-0.00366211,0.0474609
0.0170898,0.0460754
0.0115967,0.0450562
-0.0128174,0.0439697
-0.0238037,0.043457
0.00366211,0.042511
-0.000610352,0.0419556
-0.000610352,0.0417358
-0.00366211,0.0415894
0.00915527,0.0410767
0.0634766,0.0411072
0.012207,0.0403564
0.0567627,0.0408508
-0.0585938,0.0412292
-0.0299072,0.0414551
-0.0378418,0.0412476
-0.137329,0.0424194
-0.140381,0.0433228
0.020752,0.0432068
0.0128174,0.0430359
-0.0415039,0.0432556
-0.0238037,0.04328
0.0720215,0.0438782
0.146484,0.0446899
0.148315,0.0458252
0.125122,0.0467773
0.0292969,0.0469788
0.0463867,0.0473206
-0.0189209,0.0474792
-0.0549316,0.0478821
-0.00793457,0.0476013
-0.0341797,0.0476379
-0.0598145,0.0480896
-0.0585938,0.048645
-0.0256348,0.0485229
0.00549316,0.0480164
0.0189209,0.0481384
0.0341797,0.047644
0.0335693,0.0470764
-0.065918,0.047467
-0.0109863,0.0471619
0.0152588,0.0466309
-0.045166,0.0463318
0.0372314,0.04646
0.00854492,0.0461182
-0.0384521,0.0459045
-0.0128174,0.0458008
0.0164795,0.0457825
0.045166,0.0461487
0.0177002,0.0454956
-0.00183105,0.044928
0.000610352,0.0447144
0.00671387,0.044751
0.00610352,0.0444397
0.0323486,0.0445984
0.0280762,0.0444214
0.0402832,0.044751
0.0439453,0.0451233
0.0567627,0.0456665
0.0170898,0.0454773
-0.0012207,0.045166
-0.0012207,0.0449219
0.0195313,0.0448303
-0.0213623,0.0442932
-0.0158691,0.0444275
-0.00488281,0.0441406
0.0115967,0.0431946
0.0439453,0.0431152
0.0860596,0.0428345
0.0476074,0.0426086
-0.078125,0.0430054
-0.00427246,0.0426208
0.0354004,0.0427063
0.00427246,0.0417419
-0.0280762,0.0408875
-0.000610352,0.0401672
0.0152588,0.0400146
0.0158691,0.040033
0.0231934,0.039563
0.0811768,0.0402832
0.136108,0.0413208
-0.00427246,0.0410461
-0.00427246,0.0402283
0.0402832,0.0396057
0.057373,0.0388611
-0.163574,0.0396179
-0.0537109,0.0393311
-0.057373,0.0391113
-0.0720215,0.0392944
-0.0610352,0.0384338
-0.0952148,0.0392822
-0.078125,0.0385803
-0.0366211,0.0382141
-0.0231934,0.0379578
-0.00915527,0.0377808
0.010376,0.0373535
0.0268555,0.0372986
-0.0012207,0.0371643
-0.00305176,0.0369934
-0.0109863,0.0367371
0.0140381,0.0368408
0.00976563,0.0367676
0.00610352,0.0367126
0.0140381,0.0367249
0.0219727,0.0367065
0.0604248,0.0372742
0.098877,0.0382568
0.0860596,0.0391113
0.109253,0.0401672
0.108643,0.0411621
0.150757,0.0420349
0.101929,0.0429321
0.133057,0.0436951
0.0836182,0.0439453
0.0378418,0.0440247
0.0134277,0.0437805
0.00488281,0.0424561
-0.0531006,0.0415833
-0.0531006,0.0419067
-0.090332,0.0426819
-0.0500488,0.0427673
-0.0756836,0.0432861
-0.101929,0.0435852
-0.0701904,0.0428223
-0.03479,0.041687
-0.0231934,0.0406677
-0.0256348,0.0406311
-0.0775146,0.0409424
-0.0561523,0.0413147
-0.0311279,0.0410767
-0.0311279,0.0413086
-0.0396729,0.0413635
-0.0378418,0.0411438
-0.0372314,0.0409302
-0.0360107,0.0410339
-0.00671387,0.0410461
-0.00610352,0.040918
-0.00976563,0.0406738
-0.00183105,0.0403564
0.0128174,0.0398254
0.0195313,0.0399109
0.0384521,0.0401428
-0.00488281,0.03974
0.0177002,0.0395447
-0.0195313,0.0396545
0.0299072,0.0395691
-0.00976563,0.0395386
-0.0213623,0.0395874
-0.0238037,0.0393738
-0.0256348,0.0394531
-0.0299072,0.0397339
-0.00366211,0.0397644
0.0115967,0.0398132
0.0213623,0.0399658
0.0335693,0.039978
0.0299072,0.0399963
0.00549316,0.0396484
0.0262451,0.0394714
0.0305176,0.039209
0.0201416,0.0392395
0.0201416,0.0394287
-0.0323486,0.03974
0.000610352,0.0395508
0.00976563,0.0394348
-0.0177002,0.0394531
0.000610352,0.0394104
-0.0164795,0.0394592
-0.0109863,0.0391296
-0.0170898,0.0384399
-0.0158691,0.0381226
-0.0012207,0.0373535
0.00793457,0.0373901
-0.00732422,0.0371094
0.0219727,0.0372864
0.0494385,0.0375
0.0415039,0.0379089
0.00915527,0.0378479
0.0231934,0.0379211
0.0323486,0.0380127
0.022583,0.0374268
-0.0115967,0.0361816
-0.0115967,0.0362549
-0.0335693,0.0365479
-0.0152588,0.0362976
0.00488281,0.0357727
0.00244141,0.0341614
0.0109863,0.0337341
0.0305176,0.0334656
0.00915527,0.0328369
0.0494385,0.0327209
0.0170898,0.0319397
0.00793457,0.0312378
-0.0134277,0.0310059
-0.00793457,0.0308533
0,0.0307617
-0.0213623,0.0308716
-0.0457764,0.0310608
-0.00671387,0.0311157
-0.0128174,0.0312134
-0.0109863,0.0312134
-0.00549316,0.0311279
0.00549316,0.0310852
0.0128174,0.0311523
0.0115967,0.0311279
0.00671387,0.0309753
-0.00549316,0.030426
-0.0012207,0.0294495
0.00366211,0.0286255
0.00976563,0.0276306
0.00549316,0.0265991
0.00610352,0.0251526
0.00793457,0.0242126
0.0305176,0.0231873
0.0219727,0.0225708
0.0457764,0.0226501
0.0268555,0.0227844
0.0213623,0.0229492
0.0396729,0.0228149
0.0653076,0.022937
-0.032959,0.0223633
-0.000610352,0.0218689
0.0195313,0.0213074
-0.00427246,0.0203308
-0.03479,0.0199768
-0.0366211,0.0199951
-0.00549316,0.0198181
-0.0408936,0.0199707
-0.0274658,0.0194702
-0.022583,0.0191345
-0.0238037,0.0190613
-0.0152588,0.0189026
-0.0134277,0.0186401
-0.00976563,0.0183594
-0.0146484,0.0181335
-0.0012207,0.0177856
-0.00366211,0.0177551
-0.00488281,0.0177429
0.00427246,0.017688
0.00549316,0.0177246
0.00793457,0.0176758
0.0195313,0.0176758
0.012207,0.0174133
0.00915527,0.0174561
0.010376,0.0173828
0.0262451,0.01745
0.0335693,0.0174866
0.00732422,0.0174622
0.012207,0.0173706
0.00732422,0.0172058
0.0134277,0.0170837
0.0158691,0.0169434
0.00305176,0.0169373
-0.00305176,0.0168518
0.0012207,0.0166504
0.0012207,0.0163269
0.0109863,0.0161377
-0.00488281,0.0161316
0.0140381,0.0160095
0.00793457,0.0157837
0.0201416,0.0157837
0.0244141,0.0158264
0.00549316,0.0155579
0.0280762,0.0158325
0.0439453,0.0161743
-0.00305176,0.0160278
0.00854492,0.0161072
0.012207,0.0160645
0.000610352,0.0159607
0.00488281,0.0158386
0.0189209,0.0158691
0.0109863,0.0159668
0.0164795,0.0160522
0.00305176,0.0160095
0.0109863,0.0158997
0.0140381,0.0155457
0.00488281,0.0151794
0.00488281,0.0151367
-0.0299072,0.0152039
-0.0250244,0.0151306
-0.0250244,0.015155
-0.0164795,0.0152039
-0.00366211,0.0151245
-0.010376,0.0148926
-0.0286865,0.0150269
-0.0231934,0.01521
-0.00488281,0.0152344
-0.00732422,0.0151978
-0.0134277,0.0150269
-0.0134277,0.0150696
-0.00427246,0.0146179
-0.00793457,0.0145264
0.00488281,0.0144958
0.012207,0.0144836
0.0109863,0.0145142
0.03479,0.0148621
0.0177002,0.0148254
-0.00732422,0.0144409
0.00793457,0.0144531
0.010376,0.0144287
0.00732422,0.0143921
0.00427246,0.0143799
0.00854492,0.0144104
0.00488281,0.0143311
-0.0146484,0.0143616
0.0201416,0.0144958
0.0109863,0.0145508
0.00244141,0.014563
0.010376,0.0146301
-0.00610352,0.0145935
0.00793457,0.0146179
-0.0146484,0.0147034
-0.00183105,0.0146423
-0.00549316,0.0143921
-0.0152588,0.014325
-0.00976563,0.0139648
-0.00488281,0.0137451
-0.00427246,0.0135742
0.00366211,0.0132141
0.0170898,0.0127319
0.022583,0.0126282
0.0164795,0.0127869
-0.00671387,0.0126587
0.0134277,0.0127502
0.0115967,0.0125183
0.00244141,0.0121765
-0.0128174,0.0122498
-0.0146484,0.0119873
-0.0189209,0.0119019
-0.0115967,0.011792
0.00366211,0.0115906
0.00488281,0.0114868
0.010376,0.0114563
-0.0109863,0.0114685
0.00854492,0.0114075
0.00732422,0.0114685
-0.00671387,0.011499
-0.00366211,0.0114868
0.00976563,0.0115417
0.0164795,0.0116516
0.0256348,0.0118286
-0.0134277,0.0117676
0.00793457,0.0117249
0.0244141,0.0118774
0.0128174,0.0119019
0.0219727,0.0118591
0.00976563,0.0116211
0.00854492,0.0116333
-0.043335,0.0119446
0.00244141,0.0118958
0.0317383,0.0120789
0.00610352,0.0119812
-0.022583,0.0121765
-0.0286865,0.0124329
-0.0109863,0.0125305
0.000610352,0.0125244
-0.00854492,0.0125
-0.0189209,0.0126404
-0.0158691,0.0126587
0.00183105,0.0125977
0.00854492,0.0124817
-0.00610352,0.0122986
0.00610352,0.0123047
0.0146484,0.0121704
0.012207,0.011853
0.00732422,0.0118958
-0.00183105,0.0118286
0.0231934,0.0119385
0.0140381,0.0120728
0.0164795,0.0121887
0.0250244,0.0122498
0.00915527,0.0122314
0.0323486,0.0123901
0.0244141,0.0126038
0.0134277,0.0126282
-0.0146484,0.0126343
-0.0170898,0.0127563
-0.00549316,0.0127625
-0.012207,0.0125854
-0.0280762,0.012616
-0.0482178,0.0128479
-0.0219727,0.0129028
-0.0244141,0.0131104
-0.0177002,0.0131836
-0.010376,0.0130005
-0.00671387,0.0128357
0.00549316,0.0128418
0.00732422,0.0128418
0.00732422,0.0127808
0.0134277,0.0127808
0.0183105,0.0129211
0.00854492,0.0129272
0.0268555,0.013147
0.00732422,0.0130981
-0.0177002,0.0131653
-0.00549316,0.0128723
0.000610352,0.0127014
-0.00488281,0.012677
-0.00854492,0.0126831
-0.00427246,0.0126221
0.00244141,0.0125732
-0.00488281,0.0125793
0.00427246,0.0125366
0.022583,0.0127136
0.00427246,0.0126099
-0.00305176,0.012439
0.0109863,0.012439
0.00549316,0.0124695
0.00793457,0.0124451
-0.0012207,0.0123962
0.00549316,0.0123718
0.00854492,0.0123108
0.00549316,0.0123474
0.0238037,0.0125305
0.00366211,0.0124146
0.010376,0.0124207
-0.00671387,0.012439
-0.0170898,0.0125671
0.020752,0.012738
0.0012207,0.0125793
-0.00671387,0.0124207
-0.00488281,0.0123047
0.00183105,0.0122559
0.0128174,0.0122498
0.0158691,0.0122925
-0.00915527,0.0123596
0.020752,0.012439
0.0177002,0.0124695
-0.00305176,0.0123108
-0.00793457,0.0122742
0.0146484,0.012384
0.00549316,0.0123901
-0.0158691,0.0124451
0.00244141,0.0123596
-0.0128174,0.0124023
-0.0109863,0.012439
0.00366211,0.0124084
-0.00976563,0.0124695
-0.0183105,0.0125549
0.00610352,0.0124512
-0.00915527,0.0122864
0.00976563,0.0122498
0.00732422,0.0122437
-0.00244141,0.0120239
-0.00732422,0.011969
0.0189209,0.0119385
0.022583,0.0120667
-0.00488281,0.01203
0.0311279,0.011908
0.0469971,0.0123535
-0.00427246,0.0120789
0.012207,0.0121399
0.0183105,0.0120972
-0.0134277,0.0119446
-0.010376,0.0119385
-0.0177002,0.0121094
-0.0280762,0.0123047
-0.0305176,0.0124207
-0.0256348,0.0125183
-0.0158691,0.0126587
-0.00793457,0.0126526
0.00671387,0.0126587
0.0158691,0.0127563
-0.000610352,0.012616
0.00549316,0.0125488
0.0012207,0.0124878
0.0134277,0.0126038
-0.00183105,0.0123901
0.00183105,0.0122681
0.0146484,0.0122498
-0.00732422,0.0120728
0.0109863,0.0120911
0.00976563,0.0118652
0.0396729,0.0120178
0.00427246,0.0119263
-0.00366211,0.0118164
0.020752,0.011853
0.00488281,0.0118469
-0.00305176,0.0117554
0.00610352,0.0115356
-0.0164795,0.0112183
-0.0183105,0.0111816
0.0134277,0.0110718
0.00305176,0.0109253
-0.00915527,0.0109131
-0.00854492,0.0109314
0.0134277,0.0110107
-0.0164795,0.0111023
-0.010376,0.0111328
-0.00366211,0.0110352
0.0012207,0.0108643
0.00976563,0.0108765
0.00854492,0.0106934
-0.00610352,0.0106812
0.032959,0.0108337
0.0439453,0.0112183
0.0140381,0.0113525
-0.0128174,0.0114319
-0.00244141,0.0113708
0.00854492,0.0114136
-0.00183105,0.0114075
-0.0280762,0.0116394
-0.0244141,0.0118408
-0.0115967,0.011731
-0.00488281,0.0117371
-0.00549316,0.0117615
0.0128174,0.0117798
0.0183105,0.011908
0.0109863,0.0119385
0.00671387,0.0119934
0.010376,0.0120422
0.0213623,0.0121704
-0.0128174,0.0122437
0.00549316,0.0120605
0.0152588,0.0121765
-0.012207,0.0121948
0.00732422,0.0122009
-0.00305176,0.0120605
-0.00305176,0.0118835
0.0109863,0.0119812
0.00732422,0.0119873
0.00244141,0.0119629
-0.00305176,0.0119751
0.0177002,0.0120239
-0.012207,0.0119873
-0.012207,0.0120178
0.0109863,0.0119202
0.00305176,0.0117737
-0.00854492,0.0118286
-0.00427246,0.011792
-0.0158691,0.0118042
0.0164795,0.0119141
0.0109863,0.0118652
-0.0109863,0.0119507
-0.012207,0.0119446
0.00915527,0.0119263
-0.0177002,0.0120667
0.0109863,0.0120789
-0.00427246,0.0119385
-0.0201416,0.0120789
-0.00854492,0.0120728
0.0140381,0.0121155
-0.00671387,0.0121094
-0.000610352,0.0120911
0.00793457,0.0120972
0.00488281,0.0119568
0.0164795,0.0118958
-0.00915527,0.0119385
0.00427246,0.0116699
0.00305176,0.0112305
0.00915527,0.0112793
0.00549316,0.0112122
-0.000610352,0.0110352
0.000610352,0.010907
0.00549316,0.0108582
-0.00671387,0.0107483
-0.00244141,0.0104919
-0.0109863,0.0102966
-0.000610352,0.0100464
-0.000610352,0.0098938
-0.00488281,0.00986328
-0.0128174,0.00992432
0.00488281,0.00981445
-0.00305176,0.00983887
0.00610352,0.00984497
0.0183105,0.0100159
0.0109863,0.00999146
-0.00244141,0.00999756
0.00488281,0.0100281
0.00732422,0.00995483
0.00976563,0.00997925
0.00915527,0.00996094
0.0158691,0.010022
-0.00183105,0.00964355
0.00549316,0.00965576
0.00183105,0.00963745
0.00488281,0.00947876
-0.020752,0.00963745
-0.00732422,0.00968018
0.00305176,0.00964966
-0.020752,0.00969238
-0.00732422,0.00958252
-0.0146484,0.00959473
0.00305176,0.00959473
0.00976563,0.00960083
0.00610352,0.00957642
0.0152588,0.00959473
-0.00244141,0.00945435
0.00427246,0.00939331
0.00610352,0.00941772
0.00854492,0.00949097
0.00732422,0.00946655
-0.0134277,0.00951538
-0.0140381,0.00959473
-0.0012207,0.00927734
-0.012207,0.00895996
-0.0256348,0.00907593
-0.00488281,0.00899658
-0.0115967,0.00908813
-0.00671387,0.00906982
-0.000610352,0.00905762
0.00549316,0.00883179
0.00183105,0.00860596
0.00976563,0.00858765
0.0140381,0.0086792
0.00366211,0.00866089
0.0140381,0.0086731
-0.00976563,0.00858765
0.0115967,0.00859375
0.010376,0.00863037
0,0.00852661
0.00793457,0.00839233
0.0177002,0.00844116
0.0158691,0.00854492
0.0012207,0.00840454
0.00854492,0.00836792
0.000610352,0.00830078
0.00732422,0.00834351
0.00427246,0.00835571
-0.0177002,0.00842285
0.0152588,0.0085022
-0.00793457,0.00855713
-0.00793457,0.00860596
-0.00244141,0.00845337
-0.00427246,0.00837402
0.00488281,0.00830078
-0.0140381,0.0083313
-0.00671387,0.00836792
-0.0012207,0.00829468
-0.00427246,0.00829468
-0.00488281,0.00818481
0.0012207,0.00803223
0.0012207,0.00793457
0.0152588,0.00797729
-0.00183105,0.00787354
-0.00366211,0.0078186
0.00183105,0.00765991
-0.00854492,0.0076355
-0.00671387,0.00765991
-0.00366211,0.00749512
-0.00732422,0.00748291
0.00915527,0.00743408
0.0128174,0.00749512
-0.00610352,0.00755005
0.0201416,0.00767212
0.00854492,0.00770874
-0.00244141,0.00756836
0.0134277,0.00761108
0.00671387,0.0076355
-0.00549316,0.00765991
-0.0109863,0.00767822
0.0012207,0.0076355
-0.00305176,0.00765991
0.00732422,0.00772705
-0.00549316,0.00772705
